lam(nm) Flux (10^-20 J/s/m2/um)
304.395 1.31788e+06
304.545 1.26541e+06
304.695 1.21293e+06
304.845 1.16054e+06
304.995 1.10816e+06
305.145 1.05589e+06
305.295 1.00361e+06
305.445 951436
305.595 899262
305.745 847192
305.895 795123
306.045 743153
306.195 691183
306.345 639317
306.495 587450
306.645 535687
306.795 483923
306.945 432255
307.095 380587
307.245 329023
307.395 277459
307.545 302753
307.695 328046
307.845 353290
307.995 378534
308.145 403729
308.295 428924
308.445 454069
308.595 479214
308.745 504310
308.895 529407
309.045 554455
309.195 579503
309.345 604503
309.495 629503
309.645 654454
309.795 679406
309.945 704308
310.095 729210
310.245 754067
310.395 778923
310.545 829374
310.695 879826
310.845 930182
310.995 980538
311.145 1.0308e+06
311.295 1.08106e+06
311.445 1.13121e+06
311.595 1.18137e+06
311.745 1.23144e+06
311.895 1.2815e+06
312.045 1.33147e+06
312.195 1.38144e+06
312.345 1.43131e+06
312.495 1.48119e+06
312.645 1.53096e+06
312.795 1.58074e+06
312.945 1.63042e+06
313.095 1.6801e+06
313.245 1.72969e+06
313.395 1.77928e+06
313.545 1.77709e+06
313.695 1.7749e+06
313.845 1.77271e+06
313.995 1.77053e+06
314.145 1.76835e+06
314.295 1.76617e+06
314.445 1.76399e+06
314.595 1.76182e+06
314.745 1.75964e+06
314.895 1.75747e+06
315.045 1.7553e+06
315.195 1.75313e+06
315.345 1.75097e+06
315.495 1.7488e+06
315.645 1.74664e+06
315.795 1.74448e+06
315.945 1.74233e+06
316.095 1.74017e+06
316.245 1.73802e+06
316.395 1.73587e+06
316.545 1.71572e+06
316.695 1.69557e+06
316.845 1.67547e+06
316.995 1.65536e+06
317.145 1.63529e+06
317.295 1.61522e+06
317.445 1.59519e+06
317.595 1.57516e+06
317.745 1.55517e+06
317.895 1.53517e+06
318.045 1.51521e+06
318.195 1.49526e+06
318.345 1.47534e+06
318.495 1.45543e+06
318.645 1.43554e+06
318.795 1.41566e+06
318.945 1.39582e+06
319.095 1.37598e+06
319.245 1.35617e+06
319.395 1.33636e+06
319.545 1.35079e+06
319.695 1.36521e+06
319.845 1.37961e+06
319.995 1.394e+06
320.145 1.40837e+06
320.295 1.42275e+06
320.445 1.43709e+06
320.595 1.45144e+06
320.745 1.46575e+06
320.895 1.48007e+06
321.045 1.49436e+06
321.195 1.50865e+06
321.345 1.52291e+06
321.495 1.53717e+06
321.645 1.55141e+06
321.795 1.56565e+06
321.945 1.57986e+06
322.095 1.59407e+06
322.245 1.60825e+06
322.395 1.62244e+06
322.545 1.60067e+06
322.695 1.5789e+06
322.845 1.55716e+06
322.995 1.53542e+06
323.145 1.51373e+06
323.295 1.49205e+06
323.445 1.47039e+06
323.595 1.44874e+06
323.745 1.42712e+06
323.895 1.40551e+06
324.045 1.38394e+06
324.195 1.36237e+06
324.345 1.34083e+06
324.495 1.3193e+06
324.645 1.29781e+06
324.795 1.27631e+06
324.945 1.25486e+06
325.095 1.23341e+06
325.245 1.21199e+06
325.395 1.19058e+06
325.545 1.21388e+06
325.695 1.23719e+06
325.845 1.26045e+06
325.995 1.28372e+06
326.145 1.30693e+06
326.295 1.33015e+06
326.445 1.35333e+06
326.595 1.3765e+06
326.745 1.39964e+06
326.895 1.42277e+06
327.045 1.44586e+06
327.195 1.46895e+06
327.345 1.492e+06
327.495 1.51505e+06
327.645 1.53806e+06
327.795 1.56107e+06
327.945 1.58403e+06
328.095 1.607e+06
328.245 1.62992e+06
328.395 1.65284e+06
328.545 1.64417e+06
328.695 1.6355e+06
328.845 1.62685e+06
328.995 1.6182e+06
329.145 1.60956e+06
329.295 1.60092e+06
329.445 1.5923e+06
329.595 1.58368e+06
329.745 1.57507e+06
329.895 1.56647e+06
330.045 1.55788e+06
330.195 1.54929e+06
330.345 1.54071e+06
330.495 1.53213e+06
330.645 1.52357e+06
330.795 1.51501e+06
330.945 1.50647e+06
331.095 1.49792e+06
331.245 1.4894e+06
331.395 1.48087e+06
331.545 1.47462e+06
331.695 1.46836e+06
331.845 1.46212e+06
331.995 1.45588e+06
332.145 1.44965e+06
332.295 1.44342e+06
332.445 1.43719e+06
332.595 1.43097e+06
332.745 1.42477e+06
332.895 1.41856e+06
333.045 1.41236e+06
333.195 1.40616e+06
333.345 1.39997e+06
333.495 1.39379e+06
333.645 1.38761e+06
333.795 1.38144e+06
333.945 1.37527e+06
334.095 1.36911e+06
334.245 1.36296e+06
334.395 1.35681e+06
334.545 1.3508e+06
334.695 1.34479e+06
334.845 1.33878e+06
334.995 1.33278e+06
335.145 1.32679e+06
335.295 1.3208e+06
335.445 1.31483e+06
335.595 1.30885e+06
335.745 1.30288e+06
335.895 1.29692e+06
336.045 1.29096e+06
336.195 1.285e+06
336.345 1.27906e+06
336.495 1.27311e+06
336.645 1.26718e+06
336.795 1.26124e+06
336.945 1.25532e+06
337.095 1.24939e+06
337.245 1.24347e+06
337.395 1.23756e+06
337.545 1.25523e+06
337.695 1.2729e+06
337.845 1.29054e+06
337.995 1.30818e+06
338.145 1.32579e+06
338.295 1.3434e+06
338.445 1.36098e+06
338.595 1.37855e+06
338.745 1.3961e+06
338.895 1.41365e+06
339.045 1.43117e+06
339.195 1.44868e+06
339.345 1.46617e+06
339.495 1.48365e+06
339.645 1.5011e+06
339.795 1.51856e+06
339.945 1.53598e+06
340.095 1.5534e+06
340.245 1.5708e+06
340.395 1.58819e+06
340.545 1.57839e+06
340.695 1.56859e+06
340.845 1.55881e+06
340.995 1.54903e+06
341.145 1.53927e+06
341.295 1.5295e+06
341.445 1.51976e+06
341.595 1.51002e+06
341.745 1.50029e+06
341.895 1.49056e+06
342.045 1.48085e+06
342.195 1.47114e+06
342.345 1.46145e+06
342.495 1.45175e+06
342.645 1.44208e+06
342.795 1.4324e+06
342.945 1.42274e+06
343.095 1.41307e+06
343.245 1.40343e+06
343.395 1.39379e+06
343.545 1.39813e+06
343.695 1.40247e+06
343.845 1.4068e+06
343.995 1.41113e+06
344.145 1.41546e+06
344.295 1.41979e+06
344.445 1.4241e+06
344.595 1.42842e+06
344.745 1.43273e+06
344.895 1.43704e+06
345.045 1.44134e+06
345.195 1.44564e+06
345.345 1.44994e+06
345.495 1.45423e+06
345.645 1.45852e+06
345.795 1.46281e+06
345.945 1.46709e+06
346.095 1.47137e+06
346.245 1.47564e+06
346.395 1.47991e+06
346.545 1.48307e+06
346.695 1.48623e+06
346.845 1.48938e+06
346.995 1.49254e+06
347.145 1.49569e+06
347.295 1.49884e+06
347.445 1.50198e+06
347.595 1.50512e+06
347.745 1.50826e+06
347.895 1.5114e+06
348.045 1.51453e+06
348.195 1.51766e+06
348.345 1.52079e+06
348.495 1.52392e+06
348.645 1.52704e+06
348.795 1.53016e+06
348.945 1.53328e+06
349.095 1.53639e+06
349.245 1.53951e+06
349.395 1.54262e+06
349.545 1.52018e+06
349.695 1.49774e+06
349.845 1.47533e+06
349.995 1.45293e+06
350.145 1.43056e+06
350.295 1.4082e+06
350.445 1.38587e+06
350.595 1.36354e+06
350.745 1.34125e+06
350.895 1.31896e+06
351.045 1.29671e+06
351.195 1.27446e+06
351.345 1.25225e+06
351.495 1.23003e+06
351.645 1.20786e+06
351.795 1.18568e+06
351.945 1.16354e+06
352.095 1.1414e+06
352.245 1.1193e+06
352.395 1.0972e+06
352.545 1.1204e+06
352.695 1.14359e+06
352.845 1.16674e+06
352.995 1.1899e+06
353.145 1.21301e+06
353.295 1.23612e+06
353.445 1.25919e+06
353.595 1.28227e+06
353.745 1.30531e+06
353.895 1.32834e+06
354.045 1.35134e+06
354.195 1.37433e+06
354.345 1.39729e+06
354.495 1.42025e+06
354.645 1.44317e+06
354.795 1.46609e+06
354.945 1.48897e+06
355.095 1.51185e+06
355.245 1.53469e+06
355.395 1.55753e+06
355.545 1.53179e+06
355.695 1.50605e+06
355.845 1.48035e+06
355.995 1.45465e+06
356.145 1.42899e+06
356.295 1.40334e+06
356.445 1.37773e+06
356.595 1.35212e+06
356.745 1.32655e+06
356.895 1.30098e+06
357.045 1.27545e+06
357.195 1.24992e+06
357.345 1.22444e+06
357.495 1.19896e+06
357.645 1.17351e+06
357.795 1.14807e+06
357.945 1.12267e+06
358.095 1.09728e+06
358.245 1.07192e+06
358.395 1.04657e+06
358.545 1.02776e+06
358.695 1.00895e+06
358.845 990173
358.995 971397
359.145 952652
359.295 933907
359.445 915191
359.595 896476
359.745 877792
359.895 859108
360.045 840456
360.195 821804
360.345 803184
360.495 784565
360.645 765975
360.795 747384
360.945 728825
361.095 710266
361.245 691738
361.395 673210
361.545 653888
361.695 634567
361.845 615276
361.995 595985
362.145 576727
362.295 557470
362.445 538244
362.595 519019
362.745 499824
362.895 480629
363.045 461466
363.195 442303
363.345 423172
363.495 404041
363.645 384942
363.795 365842
363.945 346774
364.095 327707
364.245 308670
364.395 289633
364.545 324015
364.695 358397
364.845 392722
364.995 427047
365.145 461317
365.295 495586
365.445 529799
365.595 564011
365.745 598168
365.895 632325
366.045 666426
366.195 700526
366.345 734571
366.495 768616
366.645 802604
366.795 836591
366.945 870526
367.095 904462
367.245 938341
367.395 972220
367.545 999373
367.695 1.02653e+06
367.845 1.05364e+06
367.995 1.08075e+06
368.145 1.10781e+06
368.295 1.13488e+06
368.445 1.1619e+06
368.595 1.18892e+06
368.745 1.2159e+06
368.895 1.24288e+06
369.045 1.26981e+06
369.195 1.29675e+06
369.345 1.32364e+06
369.495 1.35053e+06
369.645 1.37738e+06
369.795 1.40422e+06
369.945 1.43103e+06
370.095 1.45783e+06
370.245 1.48459e+06
370.395 1.51136e+06
370.545 1.5151e+06
370.695 1.51885e+06
370.845 1.52259e+06
370.995 1.52633e+06
371.145 1.53006e+06
371.295 1.5338e+06
371.445 1.53753e+06
371.595 1.54126e+06
371.745 1.54498e+06
371.895 1.5487e+06
372.045 1.55241e+06
372.195 1.55613e+06
372.345 1.55984e+06
372.495 1.56355e+06
372.645 1.56726e+06
372.795 1.57096e+06
372.945 1.57466e+06
373.095 1.57836e+06
373.245 1.58205e+06
373.395 1.58574e+06
373.545 1.58055e+06
373.695 1.57535e+06
373.845 1.57016e+06
373.995 1.56498e+06
374.145 1.5598e+06
374.295 1.55462e+06
374.445 1.54945e+06
374.595 1.54428e+06
374.745 1.53912e+06
374.895 1.53395e+06
375.045 1.5288e+06
375.195 1.52365e+06
375.345 1.5185e+06
375.495 1.51335e+06
375.645 1.50821e+06
375.795 1.50307e+06
375.945 1.49795e+06
376.095 1.49282e+06
376.245 1.48769e+06
376.395 1.48257e+06
376.545 1.47116e+06
376.695 1.45975e+06
376.845 1.44836e+06
376.995 1.43696e+06
377.145 1.42559e+06
377.295 1.41421e+06
377.445 1.40286e+06
377.595 1.3915e+06
377.745 1.38016e+06
377.895 1.36882e+06
378.045 1.3575e+06
378.195 1.34618e+06
378.345 1.33488e+06
378.495 1.32358e+06
378.645 1.31229e+06
378.795 1.30101e+06
378.945 1.28974e+06
379.095 1.27847e+06
379.245 1.26722e+06
379.395 1.25597e+06
379.545 1.26946e+06
379.695 1.28295e+06
379.845 1.29641e+06
379.995 1.30988e+06
380.145 1.32332e+06
380.295 1.33676e+06
380.445 1.35018e+06
380.595 1.36361e+06
380.745 1.37701e+06
380.895 1.3904e+06
381.045 1.40379e+06
381.195 1.41717e+06
381.345 1.43052e+06
381.495 1.44388e+06
381.645 1.45722e+06
381.795 1.47056e+06
381.945 1.48388e+06
382.095 1.4972e+06
382.245 1.51049e+06
382.395 1.52378e+06
382.545 1.5245e+06
382.695 1.52522e+06
382.845 1.52594e+06
382.995 1.52666e+06
383.145 1.52738e+06
383.295 1.52809e+06
383.445 1.52881e+06
383.595 1.52952e+06
383.745 1.53023e+06
383.895 1.53094e+06
384.045 1.53166e+06
384.195 1.53237e+06
384.345 1.53308e+06
384.495 1.5338e+06
384.645 1.53451e+06
384.795 1.53522e+06
384.945 1.53592e+06
385.095 1.53663e+06
385.245 1.53734e+06
385.395 1.53805e+06
385.545 1.51863e+06
385.695 1.4992e+06
385.845 1.47981e+06
385.995 1.46041e+06
386.145 1.44105e+06
386.295 1.42168e+06
386.445 1.40234e+06
386.595 1.383e+06
386.745 1.36369e+06
386.895 1.34439e+06
387.045 1.32511e+06
387.195 1.30583e+06
387.345 1.28659e+06
387.495 1.26734e+06
387.645 1.24813e+06
387.795 1.22891e+06
387.945 1.20972e+06
388.095 1.19053e+06
388.245 1.17138e+06
388.395 1.15222e+06
388.545 1.1542e+06
388.695 1.15619e+06
388.845 1.15817e+06
388.995 1.16015e+06
389.145 1.16213e+06
389.295 1.16411e+06
389.445 1.16609e+06
389.595 1.16806e+06
389.745 1.17003e+06
389.895 1.172e+06
390.045 1.17397e+06
390.195 1.17594e+06
390.345 1.17791e+06
390.495 1.17987e+06
390.645 1.18184e+06
390.795 1.1838e+06
390.945 1.18576e+06
391.095 1.18772e+06
391.245 1.18968e+06
391.395 1.19164e+06
391.545 1.20515e+06
391.695 1.21866e+06
391.845 1.23215e+06
391.995 1.24564e+06
392.145 1.25912e+06
392.295 1.27259e+06
392.445 1.28604e+06
392.595 1.29949e+06
392.745 1.31292e+06
392.895 1.32635e+06
393.045 1.33976e+06
393.195 1.35317e+06
393.345 1.36656e+06
393.495 1.37995e+06
393.645 1.39332e+06
393.795 1.40668e+06
393.945 1.42003e+06
394.095 1.43338e+06
394.245 1.44671e+06
394.395 1.46003e+06
394.545 1.45406e+06
394.695 1.44808e+06
394.845 1.44212e+06
394.995 1.43616e+06
395.145 1.4302e+06
395.295 1.42424e+06
395.445 1.41829e+06
395.595 1.41235e+06
395.745 1.40641e+06
395.895 1.40047e+06
396.045 1.39454e+06
396.195 1.38862e+06
396.345 1.38269e+06
396.495 1.37677e+06
396.645 1.37086e+06
396.795 1.36495e+06
396.945 1.35905e+06
397.095 1.35315e+06
397.245 1.34725e+06
397.395 1.34136e+06
397.545 1.33189e+06
397.695 1.32242e+06
397.845 1.31298e+06
397.995 1.30353e+06
398.145 1.29409e+06
398.295 1.28465e+06
398.445 1.27523e+06
398.595 1.2658e+06
398.745 1.25639e+06
398.895 1.24699e+06
399.045 1.23759e+06
399.195 1.2282e+06
399.345 1.21881e+06
399.495 1.20943e+06
399.645 1.20007e+06
399.795 1.1907e+06
399.945 1.18135e+06
400.095 1.172e+06
400.245 1.16266e+06
400.395 1.15333e+06
400.545 1.16475e+06
400.695 1.17618e+06
400.845 1.18759e+06
400.995 1.199e+06
401.145 1.2104e+06
401.295 1.2218e+06
401.445 1.23318e+06
401.595 1.24456e+06
401.745 1.25592e+06
401.895 1.26728e+06
402.045 1.27862e+06
402.195 1.28997e+06
402.345 1.30129e+06
402.495 1.31262e+06
402.645 1.32393e+06
402.795 1.33524e+06
402.945 1.34654e+06
403.095 1.35783e+06
403.245 1.36911e+06
403.395 1.38038e+06
403.545 1.37758e+06
403.695 1.37477e+06
403.845 1.37196e+06
403.995 1.36916e+06
404.145 1.36636e+06
404.295 1.36356e+06
404.445 1.36077e+06
404.595 1.35797e+06
404.745 1.35518e+06
404.895 1.35239e+06
405.045 1.3496e+06
405.195 1.34681e+06
405.345 1.34403e+06
405.495 1.34125e+06
405.645 1.33847e+06
405.795 1.33569e+06
405.945 1.33291e+06
406.095 1.33014e+06
406.245 1.32737e+06
406.395 1.32459e+06
406.545 1.31682e+06
406.695 1.30905e+06
406.845 1.30129e+06
406.995 1.29353e+06
407.145 1.28578e+06
407.295 1.27803e+06
407.445 1.2703e+06
407.595 1.26256e+06
407.745 1.25484e+06
407.895 1.24711e+06
408.045 1.2394e+06
408.195 1.23168e+06
408.345 1.22398e+06
408.495 1.21628e+06
408.645 1.20858e+06
408.795 1.20089e+06
408.945 1.19321e+06
409.095 1.18553e+06
409.245 1.17786e+06
409.395 1.17019e+06
409.545 1.17161e+06
409.695 1.17303e+06
409.845 1.17445e+06
409.995 1.17588e+06
410.145 1.1773e+06
410.295 1.17872e+06
410.445 1.18013e+06
410.595 1.18155e+06
410.745 1.18296e+06
410.895 1.18438e+06
411.045 1.18579e+06
411.195 1.1872e+06
411.345 1.18862e+06
411.495 1.19003e+06
411.645 1.19144e+06
411.795 1.19284e+06
411.945 1.19425e+06
412.095 1.19565e+06
412.245 1.19706e+06
412.395 1.19847e+06
412.545 1.19949e+06
412.695 1.20051e+06
412.845 1.20153e+06
412.995 1.20255e+06
413.145 1.20356e+06
413.295 1.20458e+06
413.445 1.2056e+06
413.595 1.20662e+06
413.745 1.20763e+06
413.895 1.20865e+06
414.045 1.20966e+06
414.195 1.21068e+06
414.345 1.21169e+06
414.495 1.2127e+06
414.645 1.21371e+06
414.795 1.21472e+06
414.945 1.21573e+06
415.095 1.21674e+06
415.245 1.21775e+06
415.395 1.21875e+06
415.545 1.21055e+06
415.695 1.20235e+06
415.845 1.19416e+06
415.995 1.18597e+06
416.145 1.17779e+06
416.295 1.16961e+06
416.445 1.16144e+06
416.595 1.15327e+06
416.745 1.14511e+06
416.895 1.13696e+06
417.045 1.12881e+06
417.195 1.12067e+06
417.345 1.11253e+06
417.495 1.1044e+06
417.645 1.09628e+06
417.795 1.08816e+06
417.945 1.08005e+06
418.095 1.07194e+06
418.245 1.06385e+06
418.395 1.05575e+06
418.545 1.05845e+06
418.695 1.06115e+06
418.845 1.06385e+06
418.995 1.06655e+06
419.145 1.06925e+06
419.295 1.07195e+06
419.445 1.07464e+06
419.595 1.07733e+06
419.745 1.08002e+06
419.895 1.08271e+06
420.045 1.08539e+06
420.195 1.08808e+06
420.345 1.09076e+06
420.495 1.09344e+06
420.645 1.09612e+06
420.795 1.09879e+06
420.945 1.10147e+06
421.095 1.10414e+06
421.245 1.10681e+06
421.395 1.10948e+06
421.545 1.10886e+06
421.695 1.10824e+06
421.845 1.10762e+06
421.995 1.107e+06
422.145 1.10638e+06
422.295 1.10575e+06
422.445 1.10514e+06
422.595 1.10452e+06
422.745 1.1039e+06
422.895 1.10328e+06
423.045 1.10266e+06
423.195 1.10205e+06
423.345 1.10143e+06
423.495 1.10082e+06
423.645 1.1002e+06
423.795 1.09958e+06
423.945 1.09897e+06
424.095 1.09835e+06
424.245 1.09774e+06
424.395 1.09713e+06
424.545 1.09797e+06
424.695 1.09881e+06
424.845 1.09964e+06
424.995 1.10048e+06
425.145 1.10132e+06
425.295 1.10216e+06
425.445 1.10299e+06
425.595 1.10382e+06
425.745 1.10466e+06
425.895 1.1055e+06
426.045 1.10633e+06
426.195 1.10717e+06
426.345 1.108e+06
426.495 1.10883e+06
426.645 1.10966e+06
426.795 1.11049e+06
426.945 1.11132e+06
427.095 1.11215e+06
427.245 1.11298e+06
427.395 1.11381e+06
427.545 1.1139e+06
427.695 1.11399e+06
427.845 1.11408e+06
427.995 1.11417e+06
428.145 1.11426e+06
428.295 1.11435e+06
428.445 1.11444e+06
428.595 1.11453e+06
428.745 1.11462e+06
428.895 1.1147e+06
429.045 1.11479e+06
429.195 1.11489e+06
429.345 1.11497e+06
429.495 1.11506e+06
429.645 1.11515e+06
429.795 1.11524e+06
429.945 1.11533e+06
430.095 1.11542e+06
430.245 1.11551e+06
430.395 1.1156e+06
430.545 1.11826e+06
430.695 1.12091e+06
430.845 1.12357e+06
430.995 1.12623e+06
431.145 1.12888e+06
431.295 1.13153e+06
431.445 1.13418e+06
431.595 1.13683e+06
431.745 1.13947e+06
431.895 1.14212e+06
432.045 1.14476e+06
432.195 1.1474e+06
432.345 1.15004e+06
432.495 1.15267e+06
432.645 1.15122e+06
432.795 1.14976e+06
432.945 1.14831e+06
433.095 1.14685e+06
433.245 1.1454e+06
433.395 1.14395e+06
433.545 1.1425e+06
433.695 1.14105e+06
433.845 1.1396e+06
433.995 1.13816e+06
434.145 1.13609e+06
434.295 1.13403e+06
434.445 1.13196e+06
434.595 1.1299e+06
434.745 1.12784e+06
434.895 1.12579e+06
435.045 1.12373e+06
435.195 1.12167e+06
435.345 1.11962e+06
435.495 1.11757e+06
435.645 1.11552e+06
435.795 1.11347e+06
435.945 1.11142e+06
436.095 1.10937e+06
436.245 1.10733e+06
436.395 1.10529e+06
436.545 1.10092e+06
436.695 1.09655e+06
436.845 1.09219e+06
436.995 1.08783e+06
437.145 1.08347e+06
437.295 1.07912e+06
437.445 1.07477e+06
437.595 1.07042e+06
437.745 1.06608e+06
437.895 1.06174e+06
438.045 1.0574e+06
438.195 1.05306e+06
438.345 1.04873e+06
438.495 1.0444e+06
438.645 1.04007e+06
438.795 1.03575e+06
438.945 1.03143e+06
439.095 1.02711e+06
439.245 1.0228e+06
439.395 1.01848e+06
439.545 1.01842e+06
439.695 1.01835e+06
439.845 1.01828e+06
439.995 1.01821e+06
440.145 1.01814e+06
440.295 1.01808e+06
440.445 1.01801e+06
440.595 1.01794e+06
440.745 1.01787e+06
440.895 1.0178e+06
441.045 1.01774e+06
441.195 1.01767e+06
441.345 1.0176e+06
441.495 1.01754e+06
441.645 1.01747e+06
441.795 1.0174e+06
441.945 1.01733e+06
442.095 1.01726e+06
442.245 1.01719e+06
442.395 1.01713e+06
442.545 1.0164e+06
442.695 1.01568e+06
442.845 1.01496e+06
442.995 1.01423e+06
443.145 1.01351e+06
443.295 1.01279e+06
443.445 1.01207e+06
443.595 1.01135e+06
443.745 1.01063e+06
443.895 1.00991e+06
444.045 1.0092e+06
444.195 1.00848e+06
444.345 1.00776e+06
444.495 1.00704e+06
444.645 1.00632e+06
444.795 1.00561e+06
444.945 1.00489e+06
445.095 1.00418e+06
445.245 1.00346e+06
445.395 1.00275e+06
445.545 1.00248e+06
445.695 1.00221e+06
445.845 1.00194e+06
445.995 1.00167e+06
446.145 1.0014e+06
446.295 1.00113e+06
446.445 1.00086e+06
446.595 1.00059e+06
446.745 1.00033e+06
446.895 1.00006e+06
447.045 999793
447.195 999528
447.345 999260
447.495 998993
447.645 998725
447.795 998457
447.945 998191
448.095 997925
448.245 997658
448.395 997391
448.545 993652
448.695 989913
448.845 986175
448.995 982436
449.145 978704
449.295 974973
449.445 971247
449.595 967522
449.745 963800
449.895 960078
450.045 956362
450.195 952646
450.345 948934
450.495 945222
450.645 941517
450.795 937811
450.945 934108
451.095 930404
451.245 926708
451.395 923011
451.545 915088
451.695 907164
451.845 899248
451.995 891332
452.145 883429
452.295 875526
