lam(nm) Flux (10^-20 J/s/m2/um)
304.395 1.74583e+06
304.545 1.70927e+06
304.695 1.67271e+06
304.845 1.63621e+06
304.995 1.59971e+06
305.145 1.56329e+06
305.295 1.52687e+06
305.445 1.49052e+06
305.595 1.45416e+06
305.745 1.41789e+06
305.895 1.38161e+06
306.045 1.3454e+06
306.195 1.30919e+06
306.345 1.27305e+06
306.495 1.23692e+06
306.645 1.20085e+06
306.795 1.16479e+06
306.945 1.12879e+06
307.095 1.0928e+06
307.245 1.05687e+06
307.395 1.02094e+06
307.545 1.04086e+06
307.695 1.06078e+06
307.845 1.08066e+06
307.995 1.10054e+06
308.145 1.12038e+06
308.295 1.14023e+06
308.445 1.16003e+06
308.595 1.17983e+06
308.745 1.1996e+06
308.895 1.21936e+06
309.045 1.23909e+06
309.195 1.25881e+06
309.345 1.2785e+06
309.495 1.29819e+06
309.645 1.31785e+06
309.795 1.3375e+06
309.945 1.35711e+06
310.095 1.37672e+06
310.245 1.3963e+06
310.395 1.41587e+06
310.545 1.44864e+06
310.695 1.48141e+06
310.845 1.51412e+06
310.995 1.54683e+06
311.145 1.57947e+06
311.295 1.61212e+06
311.445 1.6447e+06
311.595 1.67728e+06
311.745 1.70981e+06
311.895 1.74233e+06
312.045 1.77478e+06
312.195 1.80723e+06
312.345 1.83963e+06
312.495 1.87202e+06
312.645 1.90436e+06
312.795 1.9367e+06
312.945 1.96896e+06
313.095 2.00123e+06
313.245 2.03344e+06
313.395 2.06565e+06
313.545 2.0568e+06
313.695 2.04796e+06
313.845 2.03912e+06
313.995 2.03029e+06
314.145 2.02148e+06
314.295 2.01267e+06
314.445 2.00387e+06
314.595 1.99507e+06
314.745 1.98629e+06
314.895 1.97751e+06
315.045 1.96875e+06
315.195 1.95998e+06
315.345 1.95124e+06
315.495 1.94249e+06
315.645 1.93377e+06
315.795 1.92504e+06
315.945 1.91632e+06
316.095 1.9076e+06
316.245 1.89891e+06
316.395 1.89021e+06
316.545 1.87155e+06
316.695 1.85288e+06
316.845 1.83425e+06
316.995 1.81563e+06
317.145 1.79703e+06
317.295 1.77844e+06
317.445 1.75988e+06
317.595 1.74132e+06
317.745 1.7228e+06
317.895 1.70427e+06
318.045 1.68578e+06
318.195 1.6673e+06
318.345 1.64884e+06
318.495 1.63039e+06
318.645 1.61196e+06
318.795 1.59354e+06
318.945 1.57516e+06
319.095 1.55678e+06
319.245 1.53842e+06
319.395 1.52007e+06
319.545 1.52948e+06
319.695 1.53889e+06
319.845 1.54827e+06
319.995 1.55766e+06
320.145 1.56702e+06
320.295 1.57639e+06
320.445 1.58574e+06
320.595 1.59509e+06
320.745 1.60443e+06
320.895 1.61376e+06
321.045 1.62308e+06
321.195 1.6324e+06
321.345 1.6417e+06
321.495 1.651e+06
321.645 1.66028e+06
321.795 1.66956e+06
321.945 1.67882e+06
322.095 1.68809e+06
322.245 1.69733e+06
322.395 1.70658e+06
322.545 1.69495e+06
322.695 1.68332e+06
322.845 1.67171e+06
322.995 1.6601e+06
323.145 1.64851e+06
323.295 1.63693e+06
323.445 1.62536e+06
323.595 1.6138e+06
323.745 1.60226e+06
323.895 1.59071e+06
324.045 1.57919e+06
324.195 1.56767e+06
324.345 1.55617e+06
324.495 1.54467e+06
324.645 1.53318e+06
324.795 1.5217e+06
324.945 1.51024e+06
325.095 1.49879e+06
325.245 1.48735e+06
325.395 1.47591e+06
325.545 1.4898e+06
325.695 1.50368e+06
325.845 1.51754e+06
325.995 1.5314e+06
326.145 1.54523e+06
326.295 1.55907e+06
326.445 1.57288e+06
326.595 1.58669e+06
326.745 1.60047e+06
326.895 1.61425e+06
327.045 1.62801e+06
327.195 1.64176e+06
327.345 1.6555e+06
327.495 1.66923e+06
327.645 1.68294e+06
327.795 1.69665e+06
327.945 1.71033e+06
328.095 1.72401e+06
328.245 1.73766e+06
328.395 1.75132e+06
328.545 1.74423e+06
328.695 1.73713e+06
328.845 1.73005e+06
328.995 1.72297e+06
329.145 1.71591e+06
329.295 1.70884e+06
329.445 1.70178e+06
329.595 1.69473e+06
329.745 1.68768e+06
329.895 1.68064e+06
330.045 1.67361e+06
330.195 1.66658e+06
330.345 1.65956e+06
330.495 1.65255e+06
330.645 1.64554e+06
330.795 1.63853e+06
330.945 1.63154e+06
331.095 1.62455e+06
331.245 1.61757e+06
331.395 1.61059e+06
331.545 1.60867e+06
331.695 1.60674e+06
331.845 1.60482e+06
331.995 1.60289e+06
332.145 1.60097e+06
332.295 1.59905e+06
332.445 1.59713e+06
332.595 1.59522e+06
332.745 1.5933e+06
332.895 1.59138e+06
333.045 1.58947e+06
333.195 1.58756e+06
333.345 1.58565e+06
333.495 1.58375e+06
333.645 1.58185e+06
333.795 1.57995e+06
333.945 1.57804e+06
334.095 1.57614e+06
334.245 1.57425e+06
334.395 1.57235e+06
334.545 1.55719e+06
334.695 1.54202e+06
334.845 1.52688e+06
334.995 1.51174e+06
335.145 1.49663e+06
335.295 1.48152e+06
335.445 1.46643e+06
335.595 1.45135e+06
335.745 1.43629e+06
335.895 1.42123e+06
336.045 1.4062e+06
336.195 1.39117e+06
336.345 1.37617e+06
336.495 1.36116e+06
336.645 1.34619e+06
336.795 1.33121e+06
336.945 1.31626e+06
337.095 1.30131e+06
337.245 1.28639e+06
337.395 1.27146e+06
337.545 1.28766e+06
337.695 1.30385e+06
337.845 1.32002e+06
337.995 1.33618e+06
338.145 1.35232e+06
338.295 1.36846e+06
338.445 1.38457e+06
338.595 1.40068e+06
338.745 1.41676e+06
338.895 1.43284e+06
339.045 1.44889e+06
339.195 1.46494e+06
339.345 1.48096e+06
339.495 1.49699e+06
339.645 1.51298e+06
339.795 1.52898e+06
339.945 1.54494e+06
340.095 1.56091e+06
340.245 1.57685e+06
340.395 1.59278e+06
340.545 1.58631e+06
340.695 1.57984e+06
340.845 1.57337e+06
340.995 1.56691e+06
341.145 1.56046e+06
341.295 1.554e+06
341.445 1.54756e+06
341.595 1.54112e+06
341.745 1.5347e+06
341.895 1.52827e+06
342.045 1.52185e+06
342.195 1.51543e+06
342.345 1.50902e+06
342.495 1.50261e+06
342.645 1.49622e+06
342.795 1.48982e+06
342.945 1.48344e+06
343.095 1.47705e+06
343.245 1.47068e+06
343.395 1.46431e+06
343.545 1.4648e+06
343.695 1.46529e+06
343.845 1.46577e+06
343.995 1.46626e+06
344.145 1.46675e+06
344.295 1.46725e+06
344.445 1.46773e+06
344.595 1.46822e+06
344.745 1.46871e+06
344.895 1.46919e+06
345.045 1.46968e+06
345.195 1.47016e+06
345.345 1.47065e+06
345.495 1.47114e+06
345.645 1.47162e+06
345.795 1.4721e+06
345.945 1.47259e+06
346.095 1.47308e+06
346.245 1.47356e+06
346.395 1.47403e+06
346.545 1.47204e+06
346.695 1.47004e+06
346.845 1.46805e+06
346.995 1.46605e+06
347.145 1.46406e+06
347.295 1.46207e+06
347.445 1.46008e+06
347.595 1.45809e+06
347.745 1.45611e+06
347.895 1.45412e+06
348.045 1.45214e+06
348.195 1.45016e+06
348.345 1.44818e+06
348.495 1.4462e+06
348.645 1.44422e+06
348.795 1.44225e+06
348.945 1.44028e+06
349.095 1.43831e+06
349.245 1.43634e+06
349.395 1.43437e+06
349.545 1.40324e+06
349.695 1.37212e+06
349.845 1.34104e+06
349.995 1.30997e+06
350.145 1.27895e+06
350.295 1.24793e+06
350.445 1.21696e+06
350.595 1.18599e+06
350.745 1.15508e+06
350.895 1.12416e+06
351.045 1.0933e+06
351.195 1.06244e+06
351.345 1.03163e+06
351.495 1.00082e+06
351.645 970065
351.795 939310
351.945 908604
352.095 877899
352.245 847248
352.395 816596
352.545 843217
352.695 869839
352.845 896415
352.995 922991
353.145 949520
353.295 976049
353.445 1.00254e+06
353.595 1.02902e+06
353.745 1.05546e+06
353.895 1.0819e+06
354.045 1.1083e+06
354.195 1.1347e+06
354.345 1.16105e+06
354.495 1.1874e+06
354.645 1.2137e+06
354.795 1.24001e+06
354.945 1.26627e+06
355.095 1.29253e+06
355.245 1.31875e+06
355.395 1.34497e+06
355.545 1.33999e+06
355.695 1.33502e+06
355.845 1.33005e+06
355.995 1.32508e+06
356.145 1.32013e+06
356.295 1.31517e+06
356.445 1.31021e+06
356.595 1.30526e+06
356.745 1.30032e+06
356.895 1.29538e+06
357.045 1.29044e+06
357.195 1.28551e+06
357.345 1.28059e+06
357.495 1.27566e+06
357.645 1.27074e+06
357.795 1.26582e+06
357.945 1.26091e+06
358.095 1.25601e+06
358.245 1.2511e+06
358.395 1.2462e+06
358.545 1.23237e+06
358.695 1.21854e+06
358.845 1.20473e+06
358.995 1.19093e+06
359.145 1.17714e+06
359.295 1.16336e+06
359.445 1.14959e+06
359.595 1.13583e+06
359.745 1.12209e+06
359.895 1.10835e+06
360.045 1.09464e+06
360.195 1.08092e+06
360.345 1.06723e+06
360.495 1.05353e+06
360.645 1.03986e+06
360.795 1.02619e+06
360.945 1.01254e+06
361.095 998897
361.245 985271
361.395 971645
361.545 961795
361.695 951945
361.845 942110
361.995 932275
362.145 922458
362.295 912640
362.445 902837
362.595 893033
362.745 883246
362.895 873458
363.045 863689
363.195 853920
363.345 844168
363.495 834416
363.645 824678
363.795 814941
363.945 805218
364.095 795495
364.245 785789
364.395 776083
364.545 796045
364.695 816007
364.845 835936
364.995 855865
365.145 875761
365.295 895658
365.445 915521
365.595 935385
365.745 955218
365.895 975050
366.045 994849
366.195 1.01465e+06
366.345 1.03441e+06
366.495 1.05418e+06
366.645 1.07391e+06
366.795 1.09365e+06
366.945 1.11335e+06
367.095 1.13305e+06
367.245 1.15272e+06
367.395 1.17239e+06
367.545 1.17958e+06
367.695 1.18678e+06
367.845 1.19396e+06
367.995 1.20115e+06
368.145 1.20832e+06
368.295 1.21549e+06
368.445 1.22265e+06
368.595 1.22981e+06
368.745 1.23697e+06
368.895 1.24412e+06
369.045 1.25125e+06
369.195 1.25839e+06
369.345 1.26552e+06
369.495 1.27264e+06
369.645 1.27976e+06
369.795 1.28687e+06
369.945 1.29397e+06
370.095 1.30108e+06
370.245 1.30817e+06
370.395 1.31526e+06
370.545 1.31481e+06
370.695 1.31436e+06
370.845 1.3139e+06
370.995 1.31345e+06
371.145 1.313e+06
371.295 1.31255e+06
371.445 1.3121e+06
371.595 1.31166e+06
371.745 1.31121e+06
371.895 1.31076e+06
372.045 1.31031e+06
372.195 1.30986e+06
372.345 1.30941e+06
372.495 1.30896e+06
372.645 1.30851e+06
372.795 1.30807e+06
372.945 1.30762e+06
373.095 1.30717e+06
373.245 1.30673e+06
373.395 1.30629e+06
373.545 1.3031e+06
373.695 1.29992e+06
373.845 1.29674e+06
373.995 1.29356e+06
374.145 1.29039e+06
374.295 1.28722e+06
374.445 1.28405e+06
374.595 1.28088e+06
374.745 1.27772e+06
374.895 1.27456e+06
375.045 1.27139e+06
375.195 1.26823e+06
375.345 1.26508e+06
375.495 1.26193e+06
375.645 1.25878e+06
375.795 1.25564e+06
375.945 1.25249e+06
376.095 1.24934e+06
376.245 1.24621e+06
376.395 1.24307e+06
376.545 1.24408e+06
376.695 1.24508e+06
376.845 1.24609e+06
376.995 1.24709e+06
377.145 1.24809e+06
377.295 1.24909e+06
377.445 1.25009e+06
377.595 1.25109e+06
377.745 1.25209e+06
377.895 1.25309e+06
378.045 1.25408e+06
378.195 1.25508e+06
378.345 1.25608e+06
378.495 1.25707e+06
378.645 1.25807e+06
378.795 1.25906e+06
378.945 1.26005e+06
379.095 1.26104e+06
379.245 1.26204e+06
379.395 1.26303e+06
379.545 1.2656e+06
379.695 1.26817e+06
379.845 1.27074e+06
379.995 1.2733e+06
380.145 1.27587e+06
380.295 1.27843e+06
380.445 1.28099e+06
380.595 1.28355e+06
380.745 1.28611e+06
380.895 1.28866e+06
381.045 1.29121e+06
381.195 1.29376e+06
381.345 1.29631e+06
381.495 1.29886e+06
381.645 1.3014e+06
381.795 1.30394e+06
381.945 1.30648e+06
382.095 1.30902e+06
382.245 1.31156e+06
382.395 1.3141e+06
382.545 1.31333e+06
382.695 1.31255e+06
382.845 1.31179e+06
382.995 1.31102e+06
383.145 1.31025e+06
383.295 1.30948e+06
383.445 1.30872e+06
383.595 1.30795e+06
383.745 1.30719e+06
383.895 1.30642e+06
384.045 1.30566e+06
384.195 1.30489e+06
384.345 1.30413e+06
384.495 1.30337e+06
384.645 1.30261e+06
384.795 1.30184e+06
384.945 1.30109e+06
385.095 1.30033e+06
385.245 1.29956e+06
385.395 1.2988e+06
385.545 1.28755e+06
385.695 1.27629e+06
385.845 1.26505e+06
385.995 1.25381e+06
386.145 1.24259e+06
386.295 1.23136e+06
386.445 1.22016e+06
386.595 1.20895e+06
386.745 1.19776e+06
386.895 1.18658e+06
387.045 1.17541e+06
387.195 1.16423e+06
387.345 1.15308e+06
387.495 1.14193e+06
387.645 1.1308e+06
387.795 1.11966e+06
387.945 1.10854e+06
388.095 1.09742e+06
388.245 1.08632e+06
388.395 1.07522e+06
388.545 1.07749e+06
388.695 1.07977e+06
388.845 1.08204e+06
388.995 1.08431e+06
389.145 1.08658e+06
389.295 1.08885e+06
389.445 1.09112e+06
389.595 1.09339e+06
389.745 1.09565e+06
389.895 1.09791e+06
390.045 1.10017e+06
390.195 1.10242e+06
390.345 1.10468e+06
390.495 1.10694e+06
390.645 1.10919e+06
390.795 1.11144e+06
390.945 1.11369e+06
391.095 1.11594e+06
391.245 1.11818e+06
391.395 1.12043e+06
391.545 1.12752e+06
391.695 1.13461e+06
391.845 1.14169e+06
391.995 1.14877e+06
392.145 1.15584e+06
392.295 1.16291e+06
392.445 1.16997e+06
392.595 1.17702e+06
392.745 1.18407e+06
392.895 1.19112e+06
393.045 1.19816e+06
393.195 1.20519e+06
393.345 1.21222e+06
393.495 1.21924e+06
393.645 1.22626e+06
393.795 1.23327e+06
393.945 1.24028e+06
394.095 1.24728e+06
394.245 1.25428e+06
394.395 1.26127e+06
394.545 1.25698e+06
394.695 1.25269e+06
394.845 1.2484e+06
394.995 1.24411e+06
395.145 1.23983e+06
395.295 1.23555e+06
395.445 1.23128e+06
395.595 1.22701e+06
395.745 1.22275e+06
395.895 1.21848e+06
396.045 1.21422e+06
396.195 1.20996e+06
396.345 1.20571e+06
396.495 1.20145e+06
396.645 1.1972e+06
396.795 1.19296e+06
396.945 1.18872e+06
397.095 1.18448e+06
397.245 1.18024e+06
397.395 1.17601e+06
397.545 1.17364e+06
397.695 1.17126e+06
397.845 1.16889e+06
397.995 1.16652e+06
398.145 1.16415e+06
398.295 1.16178e+06
398.445 1.15942e+06
398.595 1.15705e+06
398.745 1.15469e+06
398.895 1.15233e+06
399.045 1.14997e+06
399.195 1.14762e+06
399.345 1.14526e+06
399.495 1.14291e+06
399.645 1.14056e+06
399.795 1.13821e+06
399.945 1.13586e+06
400.095 1.13351e+06
400.245 1.13117e+06
400.395 1.12883e+06
400.545 1.12992e+06
400.695 1.13101e+06
400.845 1.1321e+06
400.995 1.13318e+06
401.145 1.13427e+06
401.295 1.13536e+06
401.445 1.13644e+06
401.595 1.13753e+06
401.745 1.13861e+06
401.895 1.13969e+06
402.045 1.14078e+06
402.195 1.14186e+06
402.345 1.14294e+06
402.495 1.14402e+06
402.645 1.1451e+06
402.795 1.14617e+06
402.945 1.14725e+06
403.095 1.14833e+06
403.245 1.1494e+06
403.395 1.15048e+06
403.545 1.14938e+06
403.695 1.14829e+06
403.845 1.14719e+06
403.995 1.1461e+06
404.145 1.14501e+06
404.295 1.14392e+06
404.445 1.14282e+06
404.595 1.14173e+06
404.745 1.14064e+06
404.895 1.13956e+06
405.045 1.13847e+06
405.195 1.13738e+06
405.345 1.13629e+06
405.495 1.13521e+06
405.645 1.13412e+06
405.795 1.13303e+06
405.945 1.13195e+06
406.095 1.13087e+06
406.245 1.12979e+06
406.395 1.12871e+06
406.545 1.12428e+06
406.695 1.11985e+06
406.845 1.11542e+06
406.995 1.111e+06
407.145 1.10659e+06
407.295 1.10217e+06
407.445 1.09776e+06
407.595 1.09335e+06
407.745 1.08895e+06
407.895 1.08455e+06
408.045 1.08015e+06
408.195 1.07576e+06
408.345 1.07137e+06
408.495 1.06697e+06
408.645 1.06259e+06
408.795 1.05821e+06
408.945 1.05383e+06
409.095 1.04946e+06
409.245 1.04509e+06
409.395 1.04071e+06
409.545 1.03903e+06
409.695 1.03734e+06
409.845 1.03565e+06
409.995 1.03396e+06
410.145 1.03228e+06
410.295 1.0306e+06
410.445 1.02891e+06
410.595 1.02723e+06
410.745 1.02555e+06
410.895 1.02387e+06
411.045 1.0222e+06
411.195 1.02052e+06
411.345 1.01884e+06
411.495 1.01717e+06
411.645 1.0155e+06
411.795 1.01383e+06
411.945 1.01216e+06
412.095 1.01049e+06
412.245 1.00882e+06
412.395 1.00715e+06
412.545 1.00576e+06
412.695 1.00437e+06
412.845 1.00298e+06
412.995 1.00159e+06
413.145 1.0002e+06
413.295 998816
413.445 997431
413.595 996045
413.745 994662
413.895 993279
414.045 991898
414.195 990517
414.345 989138
414.495 987760
414.645 986382
414.795 985004
414.945 983629
415.095 982253
415.245 980878
415.395 979503
415.545 964128
415.695 948753
415.845 933395
415.995 918038
416.145 902704
416.295 887370
416.445 872059
416.595 856749
416.745 841458
416.895 826167
417.045 810900
417.195 795632
417.345 780387
417.495 765141
417.645 749917
417.795 734692
417.945 719491
418.095 704289
418.245 689109
418.395 673930
418.545 675824
418.695 677719
418.845 679613
418.995 681506
419.145 683396
419.295 685286
419.445 687176
419.595 689065
419.745 690950
419.895 692836
420.045 694718
420.195 696600
420.345 698479
420.495 700359
420.645 702237
420.795 704114
420.945 705990
421.095 707865
421.245 709736
421.395 711607
421.545 719876
421.695 728146
421.845 736403
421.995 744660
422.145 752907
422.295 761153
422.445 769388
422.595 777622
422.745 785845
422.895 794067
423.045 802279
423.195 810491
423.345 818691
423.495 826890
423.645 835077
423.795 843264
423.945 851441
424.095 859618
424.245 867780
424.395 875943
424.545 874258
424.695 872573
424.845 870885
424.995 869197
425.145 867515
425.295 865834
425.445 864154
425.595 862474
425.745 860794
425.895 859115
426.045 857439
426.195 855762
426.345 854088
426.495 852415
426.645 850744
426.795 849073
426.945 847404
427.095 845734
427.245 844067
427.395 842400
427.545 844201
427.695 846003
427.845 847801
427.995 849599
428.145 851394
428.295 853189
428.445 854981
428.595 856772
428.745 858563
428.895 860354
429.045 862141
429.195 863929
429.345 865714
429.495 867499
429.645 869284
429.795 871069
429.945 872848
430.095 874628
430.245 876406
430.395 878185
430.545 879089
430.695 879992
430.845 880898
430.995 881803
431.145 882707
431.295 883610
431.445 884512
431.595 885413
431.745 886313
431.895 887214
432.045 888112
432.195 889009
432.345 889909
432.495 890809
432.645 889069
432.795 887329
432.945 885589
433.095 883850
433.245 882116
433.395 880382
433.545 878648
433.695 876913
433.845 875184
433.995 873454
434.145 871548
434.295 869642
434.445 867738
434.595 865834
434.745 863935
434.895 862035
435.045 860138
435.195 858240
435.345 856345
435.495 854450
435.645 852559
435.795 850668
435.945 848780
436.095 846892
436.245 845004
436.395 843117
436.545 839463
436.695 835810
436.845 832160
436.995 828511
437.145 824870
437.295 821229
437.445 817591
437.595 813953
437.745 810319
437.895 806686
438.045 803057
438.195 799428
438.345 795805
438.495 792183
438.645 788566
438.795 784950
438.945 781337
439.095 777723
439.245 774115
439.395 770507
439.545 771426
439.695 772346
439.845 773264
439.995 774182
440.145 775100
440.295 776017
440.445 776934
440.595 777852
440.745 778765
440.895 779678
441.045 780591
441.195 781505
441.345 782418
441.495 783331
441.645 784242
441.795 785152
441.945 786063
442.095 786974
442.245 787881
442.395 788789
442.545 788361
442.695 787933
442.845 787504
442.995 787076
443.145 786647
443.295 786219
443.445 785793
443.595 785368
443.745 784942
443.895 784516
444.045 784090
444.195 783664
444.345 783237
444.495 782810
444.645 782386
444.795 781962
444.945 781538
445.095 781115
445.245 780691
445.395 780268
445.545 779395
445.695 778522
445.845 777652
445.995 776783
446.145 775914
446.295 775044
446.445 774176
446.595 773308
446.745 772442
446.895 771575
447.045 770711
447.195 769846
447.345 768982
447.495 768117
447.645 767253
447.795 766390
447.945 765527
448.095 764663
448.245 763803
448.395 762943
448.545 759223
448.695 755503
448.845 751787
448.995 748071
449.145 744361
449.295 740652
449.445 736948
449.595 733243
449.745 729543
449.895 725843
450.045 722146
450.195 718449
450.345 714760
450.495 711070
450.645 707385
450.795 703700
450.945 700020
451.095 696339
451.245 692664
451.395 688988
451.545 682982
451.695 676976
451.845 670977
451.995 664979
452.145 658989
452.295 652999
452.445 647016
452.595 641032
452.745 635059
452.895 629086
453.045 623118
453.195 617151
453.345 611193
453.495 605234
453.645 607344
453.795 609453
453.945 611559
454.095 613665
454.245 615770
454.395 617875
454.545 619977
454.695 622078
454.845 624176
454.995 626274
455.145 627601
455.295 628929
455.445 630254
455.595 631578
455.745 632901
455.895 634224
456.045 635545
456.195 636866
456.345 638187
456.495 639508
456.645 640825
456.795 642141
456.945 643459
457.095 644776
457.245 646089
457.395 647402
457.545 641731
457.695 636059
457.845 630396
457.995 624734
458.145 619076
458.295 613419
458.445 607770
458.595 602121
458.745 596478
458.895 590836
459.045 585202
459.195 579568
459.345 573940
459.495 568313
459.645 562693
459.795 557073
459.945 551461
460.095 545849
