# lam(nm) Flux (erg/s/cm2/Ang)
3.8005e+02 6.8122e-12
3.8242e+02 6.8976e-12
3.8482e+02 6.9847e-12
3.8726e+02 7.0734e-12
3.8973e+02 7.1638e-12
3.9223e+02 7.2559e-12
3.9476e+02 7.3498e-12
3.9732e+02 7.4456e-12
3.9992e+02 7.5432e-12
4.0255e+02 7.6428e-12
4.0521e+02 7.7444e-12
4.0792e+02 7.8480e-12
4.1065e+02 7.9537e-12
4.1343e+02 8.0615e-12
4.1624e+02 8.1716e-12
4.1909e+02 8.2839e-12
4.2198e+02 8.3986e-12
4.2491e+02 8.5156e-12
4.2788e+02 8.6351e-12
4.3090e+02 8.7572e-12
4.3395e+02 8.8818e-12
4.3705e+02 9.0092e-12
4.4020e+02 9.1393e-12
4.4338e+02 9.2722e-12
4.4662e+02 9.4081e-12
4.4991e+02 9.5469e-12
4.5324e+02 9.6889e-12
4.5662e+02 9.8340e-12
4.6005e+02 9.9825e-12
4.6354e+02 1.0134e-11
4.6708e+02 1.0290e-11
4.7067e+02 1.0449e-11
4.7432e+02 1.0611e-11
4.7802e+02 1.0778e-11
4.8179e+02 1.0948e-11
4.8561e+02 1.1122e-11
4.8950e+02 1.1301e-11
4.9344e+02 1.1484e-11
4.9746e+02 1.1672e-11
5.0153e+02 1.1864e-11
5.0568e+02 1.2061e-11
5.0989e+02 1.2263e-11
5.1418e+02 1.2469e-11
5.1853e+02 1.2682e-11
5.2297e+02 1.2899e-11
5.2748e+02 1.3123e-11
5.3206e+02 1.3352e-11
5.3673e+02 1.3587e-11
5.4148e+02 1.3829e-11
5.4631e+02 1.4077e-11
5.5124e+02 1.4332e-11
5.5625e+02 1.4593e-11
5.6135e+02 1.4862e-11
5.6655e+02 1.5139e-11
5.7184e+02 1.5423e-11
5.7724e+02 1.5715e-11
5.8274e+02 1.6016e-11
5.8834e+02 1.6326e-11
5.9405e+02 1.6644e-11
5.9987e+02 1.6972e-11
6.0581e+02 1.7310e-11
6.1187e+02 1.7658e-11
6.1805e+02 1.8016e-11
6.2436e+02 1.8386e-11
6.3080e+02 1.8767e-11
6.3737e+02 1.9160e-11
6.4408e+02 1.9566e-11
6.5093e+02 1.9984e-11
6.5793e+02 2.0416e-11
6.6508e+02 2.0862e-11
6.7239e+02 2.1324e-11
6.7986e+02 2.1800e-11
6.8750e+02 2.2293e-11
6.9531e+02 2.2802e-11
7.0330e+02 2.3329e-11
7.1148e+02 2.3875e-11
7.1985e+02 2.4440e-11
7.2842e+02 2.5025e-11
7.3720e+02 2.5632e-11
7.4618e+02 2.6261e-11
7.5540e+02 2.6914e-11
7.6484e+02 2.7591e-11
7.7452e+02 2.8294e-11
7.8445e+02 2.9024e-11
