# lam(nm) Flux (erg/s/cm2/Ang)
3.0439e+02 1.3179e-15
3.0455e+02 1.2654e-15
3.0469e+02 1.2129e-15
3.0485e+02 1.1605e-15
3.0500e+02 1.1082e-15
3.0514e+02 1.0559e-15
3.0530e+02 1.0036e-15
3.0544e+02 9.5144e-16
3.0560e+02 8.9926e-16
3.0575e+02 8.4719e-16
3.0589e+02 7.9512e-16
3.0605e+02 7.4315e-16
3.0619e+02 6.9118e-16
3.0635e+02 6.3932e-16
3.0650e+02 5.8745e-16
3.0664e+02 5.3569e-16
3.0680e+02 4.8392e-16
3.0694e+02 4.3226e-16
3.0710e+02 3.8059e-16
3.0725e+02 3.2902e-16
3.0739e+02 2.7746e-16
3.0755e+02 3.0275e-16
3.0769e+02 3.2805e-16
3.0785e+02 3.5329e-16
3.0800e+02 3.7853e-16
3.0814e+02 4.0373e-16
3.0830e+02 4.2892e-16
3.0844e+02 4.5407e-16
3.0860e+02 4.7921e-16
3.0875e+02 5.0431e-16
3.0889e+02 5.2941e-16
3.0905e+02 5.5445e-16
3.0919e+02 5.7950e-16
3.0935e+02 6.0450e-16
3.0950e+02 6.2950e-16
3.0964e+02 6.5445e-16
3.0980e+02 6.7941e-16
3.0994e+02 7.0431e-16
3.1010e+02 7.2921e-16
3.1025e+02 7.5407e-16
3.1039e+02 7.7892e-16
3.1055e+02 8.2937e-16
3.1069e+02 8.7983e-16
3.1085e+02 9.3018e-16
3.1100e+02 9.8054e-16
3.1114e+02 1.0308e-15
3.1130e+02 1.0811e-15
3.1144e+02 1.1312e-15
3.1160e+02 1.1814e-15
3.1175e+02 1.2314e-15
3.1189e+02 1.2815e-15
3.1205e+02 1.3315e-15
3.1219e+02 1.3814e-15
3.1235e+02 1.4313e-15
3.1250e+02 1.4812e-15
3.1264e+02 1.5310e-15
3.1280e+02 1.5807e-15
3.1294e+02 1.6304e-15
3.1310e+02 1.6801e-15
3.1325e+02 1.7297e-15
3.1339e+02 1.7793e-15
3.1355e+02 1.7771e-15
3.1369e+02 1.7749e-15
3.1385e+02 1.7727e-15
3.1400e+02 1.7705e-15
3.1414e+02 1.7683e-15
3.1430e+02 1.7662e-15
3.1444e+02 1.7640e-15
3.1460e+02 1.7618e-15
3.1475e+02 1.7596e-15
3.1489e+02 1.7575e-15
3.1505e+02 1.7553e-15
3.1519e+02 1.7531e-15
3.1535e+02 1.7510e-15
3.1550e+02 1.7488e-15
3.1564e+02 1.7466e-15
3.1580e+02 1.7445e-15
3.1594e+02 1.7423e-15
3.1610e+02 1.7402e-15
3.1625e+02 1.7380e-15
3.1639e+02 1.7359e-15
3.1655e+02 1.7157e-15
3.1669e+02 1.6956e-15
3.1685e+02 1.6755e-15
3.1700e+02 1.6554e-15
3.1714e+02 1.6353e-15
3.1730e+02 1.6152e-15
3.1744e+02 1.5952e-15
3.1760e+02 1.5752e-15
3.1775e+02 1.5552e-15
3.1789e+02 1.5352e-15
3.1805e+02 1.5152e-15
3.1819e+02 1.4953e-15
3.1835e+02 1.4753e-15
3.1850e+02 1.4554e-15
3.1864e+02 1.4355e-15
3.1880e+02 1.4157e-15
3.1894e+02 1.3958e-15
3.1910e+02 1.3760e-15
3.1925e+02 1.3562e-15
3.1939e+02 1.3364e-15
3.1955e+02 1.3508e-15
3.1969e+02 1.3652e-15
3.1985e+02 1.3796e-15
3.2000e+02 1.3940e-15
3.2014e+02 1.4084e-15
3.2030e+02 1.4227e-15
3.2044e+02 1.4371e-15
3.2060e+02 1.4514e-15
3.2075e+02 1.4657e-15
3.2089e+02 1.4801e-15
3.2105e+02 1.4944e-15
3.2119e+02 1.5086e-15
3.2135e+02 1.5229e-15
3.2150e+02 1.5372e-15
3.2164e+02 1.5514e-15
3.2180e+02 1.5656e-15
3.2194e+02 1.5799e-15
3.2210e+02 1.5941e-15
3.2225e+02 1.6082e-15
3.2239e+02 1.6224e-15
3.2255e+02 1.6007e-15
3.2269e+02 1.5789e-15
3.2285e+02 1.5572e-15
3.2300e+02 1.5354e-15
3.2314e+02 1.5137e-15
3.2330e+02 1.4920e-15
3.2344e+02 1.4704e-15
3.2360e+02 1.4487e-15
3.2375e+02 1.4271e-15
3.2389e+02 1.4055e-15
3.2405e+02 1.3839e-15
3.2419e+02 1.3624e-15
3.2435e+02 1.3408e-15
3.2450e+02 1.3193e-15
3.2464e+02 1.2978e-15
3.2480e+02 1.2763e-15
3.2494e+02 1.2549e-15
3.2510e+02 1.2334e-15
3.2525e+02 1.2120e-15
3.2539e+02 1.1906e-15
3.2555e+02 1.2139e-15
3.2569e+02 1.2372e-15
3.2585e+02 1.2604e-15
3.2600e+02 1.2837e-15
3.2614e+02 1.3069e-15
3.2630e+02 1.3301e-15
3.2644e+02 1.3533e-15
3.2660e+02 1.3765e-15
3.2675e+02 1.3996e-15
3.2689e+02 1.4228e-15
3.2705e+02 1.4459e-15
3.2719e+02 1.4689e-15
3.2735e+02 1.4920e-15
3.2750e+02 1.5150e-15
3.2764e+02 1.5381e-15
3.2780e+02 1.5611e-15
3.2794e+02 1.5840e-15
3.2810e+02 1.6070e-15
3.2825e+02 1.6299e-15
3.2839e+02 1.6528e-15
3.2855e+02 1.6442e-15
3.2869e+02 1.6355e-15
3.2885e+02 1.6268e-15
3.2900e+02 1.6182e-15
3.2914e+02 1.6096e-15
3.2930e+02 1.6009e-15
3.2944e+02 1.5923e-15
3.2960e+02 1.5837e-15
3.2975e+02 1.5751e-15
3.2989e+02 1.5665e-15
3.3005e+02 1.5579e-15
3.3019e+02 1.5493e-15
3.3035e+02 1.5407e-15
3.3050e+02 1.5321e-15
3.3064e+02 1.5236e-15
3.3080e+02 1.5150e-15
3.3094e+02 1.5065e-15
3.3110e+02 1.4979e-15
3.3125e+02 1.4894e-15
3.3139e+02 1.4809e-15
3.3155e+02 1.4746e-15
3.3169e+02 1.4684e-15
3.3185e+02 1.4621e-15
3.3200e+02 1.4559e-15
3.3214e+02 1.4496e-15
3.3230e+02 1.4434e-15
3.3244e+02 1.4372e-15
3.3260e+02 1.4310e-15
3.3275e+02 1.4248e-15
3.3289e+02 1.4186e-15
3.3305e+02 1.4124e-15
3.3319e+02 1.4062e-15
3.3335e+02 1.4000e-15
3.3350e+02 1.3938e-15
3.3364e+02 1.3876e-15
3.3380e+02 1.3814e-15
3.3394e+02 1.3753e-15
3.3410e+02 1.3691e-15
3.3425e+02 1.3630e-15
3.3439e+02 1.3568e-15
3.3455e+02 1.3508e-15
3.3469e+02 1.3448e-15
3.3485e+02 1.3388e-15
3.3500e+02 1.3328e-15
3.3514e+02 1.3268e-15
3.3530e+02 1.3208e-15
3.3544e+02 1.3148e-15
3.3560e+02 1.3088e-15
3.3575e+02 1.3029e-15
3.3589e+02 1.2969e-15
3.3605e+02 1.2910e-15
3.3619e+02 1.2850e-15
3.3635e+02 1.2791e-15
3.3650e+02 1.2731e-15
3.3664e+02 1.2672e-15
3.3680e+02 1.2612e-15
3.3694e+02 1.2553e-15
3.3710e+02 1.2494e-15
3.3725e+02 1.2435e-15
3.3739e+02 1.2376e-15
3.3755e+02 1.2552e-15
3.3769e+02 1.2729e-15
3.3785e+02 1.2905e-15
3.3800e+02 1.3082e-15
3.3814e+02 1.3258e-15
3.3830e+02 1.3434e-15
3.3844e+02 1.3610e-15
3.3860e+02 1.3785e-15
3.3875e+02 1.3961e-15
3.3889e+02 1.4137e-15
3.3905e+02 1.4312e-15
3.3919e+02 1.4487e-15
3.3935e+02 1.4662e-15
3.3950e+02 1.4836e-15
3.3964e+02 1.5011e-15
3.3980e+02 1.5186e-15
3.3994e+02 1.5360e-15
3.4010e+02 1.5534e-15
3.4025e+02 1.5708e-15
3.4039e+02 1.5882e-15
3.4055e+02 1.5784e-15
3.4069e+02 1.5686e-15
3.4085e+02 1.5588e-15
3.4100e+02 1.5490e-15
3.4114e+02 1.5393e-15
3.4130e+02 1.5295e-15
3.4144e+02 1.5198e-15
3.4160e+02 1.5100e-15
3.4175e+02 1.5003e-15
3.4189e+02 1.4906e-15
3.4205e+02 1.4808e-15
3.4219e+02 1.4711e-15
3.4235e+02 1.4614e-15
3.4250e+02 1.4517e-15
3.4264e+02 1.4421e-15
3.4280e+02 1.4324e-15
3.4294e+02 1.4227e-15
3.4310e+02 1.4131e-15
3.4325e+02 1.4034e-15
3.4339e+02 1.3938e-15
3.4355e+02 1.3981e-15
3.4369e+02 1.4025e-15
3.4385e+02 1.4068e-15
3.4400e+02 1.4111e-15
3.4414e+02 1.4155e-15
3.4430e+02 1.4198e-15
3.4444e+02 1.4241e-15
3.4460e+02 1.4284e-15
3.4475e+02 1.4327e-15
3.4489e+02 1.4370e-15
3.4505e+02 1.4413e-15
3.4519e+02 1.4456e-15
3.4535e+02 1.4499e-15
3.4550e+02 1.4542e-15
3.4564e+02 1.4585e-15
3.4580e+02 1.4628e-15
3.4594e+02 1.4671e-15
3.4610e+02 1.4714e-15
3.4625e+02 1.4756e-15
3.4639e+02 1.4799e-15
3.4655e+02 1.4831e-15
3.4669e+02 1.4862e-15
3.4685e+02 1.4894e-15
3.4700e+02 1.4925e-15
3.4714e+02 1.4957e-15
3.4730e+02 1.4988e-15
3.4744e+02 1.5020e-15
3.4760e+02 1.5051e-15
3.4775e+02 1.5083e-15
3.4789e+02 1.5114e-15
3.4805e+02 1.5145e-15
3.4819e+02 1.5177e-15
3.4835e+02 1.5208e-15
3.4850e+02 1.5239e-15
3.4864e+02 1.5270e-15
3.4880e+02 1.5302e-15
3.4894e+02 1.5333e-15
3.4910e+02 1.5364e-15
3.4925e+02 1.5395e-15
3.4939e+02 1.5426e-15
3.4955e+02 1.5202e-15
3.4969e+02 1.4977e-15
3.4985e+02 1.4753e-15
3.5000e+02 1.4529e-15
3.5014e+02 1.4306e-15
3.5030e+02 1.4082e-15
3.5044e+02 1.3859e-15
3.5060e+02 1.3635e-15
3.5075e+02 1.3412e-15
3.5089e+02 1.3190e-15
3.5105e+02 1.2967e-15
3.5119e+02 1.2745e-15
3.5135e+02 1.2522e-15
3.5150e+02 1.2300e-15
3.5164e+02 1.2079e-15
3.5180e+02 1.1857e-15
3.5194e+02 1.1635e-15
3.5210e+02 1.1414e-15
3.5225e+02 1.1193e-15
3.5239e+02 1.0972e-15
3.5255e+02 1.1204e-15
3.5269e+02 1.1436e-15
3.5285e+02 1.1667e-15
3.5300e+02 1.1899e-15
3.5314e+02 1.2130e-15
3.5330e+02 1.2361e-15
3.5344e+02 1.2592e-15
3.5360e+02 1.2823e-15
3.5375e+02 1.3053e-15
3.5389e+02 1.3283e-15
3.5405e+02 1.3513e-15
3.5419e+02 1.3743e-15
3.5435e+02 1.3973e-15
3.5450e+02 1.4202e-15
3.5464e+02 1.4432e-15
3.5480e+02 1.4661e-15
3.5494e+02 1.4890e-15
3.5510e+02 1.5118e-15
3.5525e+02 1.5347e-15
3.5539e+02 1.5575e-15
3.5555e+02 1.5318e-15
3.5569e+02 1.5060e-15
3.5585e+02 1.4803e-15
3.5600e+02 1.4546e-15
3.5614e+02 1.4290e-15
3.5630e+02 1.4033e-15
3.5644e+02 1.3777e-15
3.5660e+02 1.3521e-15
3.5675e+02 1.3265e-15
3.5689e+02 1.3010e-15
3.5705e+02 1.2755e-15
3.5719e+02 1.2499e-15
3.5735e+02 1.2244e-15
3.5750e+02 1.1990e-15
3.5764e+02 1.1735e-15
3.5780e+02 1.1481e-15
3.5794e+02 1.1227e-15
3.5810e+02 1.0973e-15
3.5825e+02 1.0719e-15
3.5839e+02 1.0466e-15
3.5855e+02 1.0278e-15
3.5869e+02 1.0089e-15
3.5885e+02 9.9017e-16
3.5900e+02 9.7140e-16
3.5914e+02 9.5265e-16
3.5930e+02 9.3391e-16
3.5944e+02 9.1519e-16
3.5960e+02 8.9648e-16
3.5975e+02 8.7779e-16
3.5989e+02 8.5911e-16
3.6005e+02 8.4046e-16
3.6019e+02 8.2180e-16
3.6035e+02 8.0318e-16
3.6050e+02 7.8456e-16
3.6064e+02 7.6597e-16
3.6080e+02 7.4738e-16
3.6094e+02 7.2882e-16
3.6110e+02 7.1027e-16
3.6125e+02 6.9174e-16
3.6139e+02 6.7321e-16
3.6155e+02 6.5389e-16
3.6169e+02 6.3457e-16
3.6185e+02 6.1528e-16
3.6200e+02 5.9598e-16
3.6214e+02 5.7673e-16
3.6230e+02 5.5747e-16
3.6244e+02 5.3824e-16
3.6260e+02 5.1902e-16
3.6275e+02 4.9982e-16
3.6289e+02 4.8063e-16
3.6305e+02 4.6147e-16
3.6319e+02 4.4230e-16
3.6335e+02 4.2317e-16
3.6350e+02 4.0404e-16
3.6364e+02 3.8494e-16
3.6380e+02 3.6584e-16
3.6394e+02 3.4677e-16
3.6410e+02 3.2771e-16
3.6425e+02 3.0867e-16
3.6439e+02 2.8963e-16
3.6455e+02 3.2401e-16
3.6469e+02 3.5840e-16
3.6485e+02 3.9272e-16
3.6500e+02 4.2705e-16
3.6514e+02 4.6132e-16
3.6530e+02 4.9559e-16
3.6544e+02 5.2980e-16
3.6560e+02 5.6401e-16
3.6575e+02 5.9817e-16
3.6589e+02 6.3232e-16
3.6605e+02 6.6643e-16
3.6619e+02 7.0053e-16
3.6635e+02 7.3457e-16
3.6650e+02 7.6862e-16
3.6664e+02 8.0260e-16
3.6680e+02 8.3659e-16
3.6694e+02 8.7053e-16
3.6710e+02 9.0446e-16
3.6725e+02 9.3834e-16
3.6739e+02 9.7222e-16
3.6755e+02 9.9937e-16
3.6769e+02 1.0265e-15
3.6785e+02 1.0536e-15
3.6800e+02 1.0807e-15
3.6814e+02 1.1078e-15
3.6830e+02 1.1349e-15
3.6844e+02 1.1619e-15
3.6860e+02 1.1889e-15
3.6875e+02 1.2159e-15
3.6889e+02 1.2429e-15
3.6905e+02 1.2698e-15
3.6919e+02 1.2967e-15
3.6935e+02 1.3236e-15
3.6950e+02 1.3505e-15
3.6964e+02 1.3774e-15
3.6980e+02 1.4042e-15
3.6994e+02 1.4310e-15
3.7010e+02 1.4578e-15
3.7025e+02 1.4846e-15
3.7039e+02 1.5114e-15
3.7055e+02 1.5151e-15
3.7069e+02 1.5188e-15
3.7085e+02 1.5226e-15
3.7100e+02 1.5263e-15
3.7114e+02 1.5301e-15
3.7130e+02 1.5338e-15
3.7144e+02 1.5375e-15
3.7160e+02 1.5413e-15
3.7175e+02 1.5450e-15
3.7189e+02 1.5487e-15
3.7205e+02 1.5524e-15
3.7219e+02 1.5561e-15
3.7235e+02 1.5598e-15
3.7250e+02 1.5635e-15
3.7264e+02 1.5673e-15
3.7280e+02 1.5710e-15
3.7294e+02 1.5747e-15
3.7310e+02 1.5784e-15
3.7325e+02 1.5820e-15
3.7339e+02 1.5857e-15
3.7355e+02 1.5806e-15
3.7369e+02 1.5753e-15
3.7385e+02 1.5702e-15
3.7400e+02 1.5650e-15
3.7414e+02 1.5598e-15
3.7430e+02 1.5546e-15
3.7444e+02 1.5494e-15
3.7460e+02 1.5443e-15
3.7475e+02 1.5391e-15
3.7489e+02 1.5339e-15
3.7505e+02 1.5288e-15
3.7519e+02 1.5236e-15
3.7535e+02 1.5185e-15
3.7550e+02 1.5134e-15
3.7564e+02 1.5082e-15
3.7580e+02 1.5031e-15
3.7594e+02 1.4979e-15
3.7610e+02 1.4928e-15
3.7625e+02 1.4877e-15
3.7639e+02 1.4826e-15
3.7655e+02 1.4712e-15
3.7669e+02 1.4597e-15
3.7685e+02 1.4484e-15
3.7700e+02 1.4370e-15
3.7714e+02 1.4256e-15
3.7730e+02 1.4142e-15
3.7744e+02 1.4029e-15
3.7760e+02 1.3915e-15
3.7775e+02 1.3802e-15
3.7789e+02 1.3688e-15
3.7805e+02 1.3575e-15
3.7819e+02 1.3462e-15
3.7835e+02 1.3349e-15
3.7850e+02 1.3236e-15
3.7864e+02 1.3123e-15
3.7880e+02 1.3010e-15
3.7894e+02 1.2897e-15
3.7910e+02 1.2785e-15
3.7925e+02 1.2672e-15
3.7939e+02 1.2560e-15
3.7955e+02 1.2695e-15
3.7969e+02 1.2830e-15
3.7985e+02 1.2964e-15
3.8000e+02 1.3099e-15
3.8014e+02 1.3233e-15
3.8030e+02 1.3368e-15
3.8044e+02 1.3502e-15
3.8060e+02 1.3636e-15
3.8075e+02 1.3770e-15
3.8089e+02 1.3904e-15
3.8105e+02 1.4038e-15
3.8119e+02 1.4172e-15
3.8135e+02 1.4305e-15
3.8150e+02 1.4439e-15
3.8164e+02 1.4572e-15
3.8180e+02 1.4706e-15
3.8194e+02 1.4839e-15
3.8210e+02 1.4972e-15
3.8225e+02 1.5105e-15
3.8239e+02 1.5238e-15
3.8255e+02 1.5245e-15
3.8269e+02 1.5252e-15
3.8285e+02 1.5259e-15
3.8300e+02 1.5267e-15
3.8314e+02 1.5274e-15
3.8330e+02 1.5281e-15
3.8344e+02 1.5288e-15
3.8360e+02 1.5295e-15
3.8375e+02 1.5302e-15
3.8389e+02 1.5309e-15
3.8405e+02 1.5317e-15
3.8419e+02 1.5324e-15
3.8435e+02 1.5331e-15
3.8450e+02 1.5338e-15
3.8464e+02 1.5345e-15
3.8480e+02 1.5352e-15
3.8494e+02 1.5359e-15
3.8510e+02 1.5366e-15
3.8525e+02 1.5373e-15
3.8539e+02 1.5381e-15
3.8555e+02 1.5186e-15
3.8569e+02 1.4992e-15
3.8585e+02 1.4798e-15
3.8600e+02 1.4604e-15
3.8614e+02 1.4410e-15
3.8630e+02 1.4217e-15
3.8644e+02 1.4023e-15
3.8660e+02 1.3830e-15
3.8675e+02 1.3637e-15
3.8689e+02 1.3444e-15
3.8705e+02 1.3251e-15
3.8719e+02 1.3058e-15
3.8735e+02 1.2866e-15
3.8750e+02 1.2673e-15
3.8764e+02 1.2481e-15
3.8780e+02 1.2289e-15
3.8794e+02 1.2097e-15
3.8810e+02 1.1905e-15
3.8825e+02 1.1714e-15
3.8839e+02 1.1522e-15
3.8855e+02 1.1542e-15
3.8869e+02 1.1562e-15
3.8885e+02 1.1582e-15
3.8900e+02 1.1601e-15
3.8914e+02 1.1621e-15
3.8930e+02 1.1641e-15
3.8944e+02 1.1661e-15
3.8960e+02 1.1681e-15
3.8975e+02 1.1700e-15
3.8989e+02 1.1720e-15
3.9005e+02 1.1740e-15
3.9019e+02 1.1759e-15
3.9035e+02 1.1779e-15
3.9050e+02 1.1799e-15
3.9064e+02 1.1818e-15
3.9080e+02 1.1838e-15
3.9094e+02 1.1858e-15
3.9110e+02 1.1877e-15
3.9125e+02 1.1897e-15
3.9139e+02 1.1916e-15
3.9155e+02 1.2051e-15
3.9169e+02 1.2187e-15
3.9185e+02 1.2321e-15
3.9200e+02 1.2456e-15
3.9214e+02 1.2591e-15
3.9230e+02 1.2726e-15
3.9244e+02 1.2860e-15
3.9260e+02 1.2995e-15
3.9275e+02 1.3129e-15
3.9289e+02 1.3263e-15
3.9305e+02 1.3398e-15
3.9319e+02 1.3532e-15
3.9335e+02 1.3666e-15
3.9350e+02 1.3799e-15
3.9364e+02 1.3933e-15
3.9380e+02 1.4067e-15
3.9394e+02 1.4200e-15
3.9410e+02 1.4334e-15
3.9425e+02 1.4467e-15
3.9439e+02 1.4600e-15
3.9455e+02 1.4541e-15
3.9469e+02 1.4481e-15
3.9485e+02 1.4421e-15
3.9500e+02 1.4362e-15
3.9514e+02 1.4302e-15
3.9530e+02 1.4242e-15
3.9544e+02 1.4183e-15
3.9560e+02 1.4123e-15
3.9575e+02 1.4064e-15
3.9589e+02 1.4005e-15
3.9605e+02 1.3945e-15
3.9619e+02 1.3886e-15
3.9635e+02 1.3827e-15
3.9650e+02 1.3768e-15
3.9664e+02 1.3709e-15
3.9680e+02 1.3649e-15
3.9694e+02 1.3591e-15
3.9710e+02 1.3531e-15
3.9725e+02 1.3472e-15
3.9739e+02 1.3414e-15
3.9755e+02 1.3319e-15
3.9769e+02 1.3224e-15
3.9785e+02 1.3130e-15
3.9800e+02 1.3035e-15
3.9814e+02 1.2941e-15
3.9830e+02 1.2846e-15
3.9844e+02 1.2752e-15
3.9860e+02 1.2658e-15
3.9875e+02 1.2564e-15
3.9889e+02 1.2470e-15
3.9905e+02 1.2376e-15
3.9919e+02 1.2282e-15
3.9935e+02 1.2188e-15
3.9950e+02 1.2094e-15
3.9964e+02 1.2001e-15
3.9980e+02 1.1907e-15
3.9994e+02 1.1813e-15
4.0010e+02 1.1720e-15
4.0025e+02 1.1627e-15
4.0039e+02 1.1533e-15
4.0055e+02 1.1647e-15
4.0069e+02 1.1762e-15
4.0085e+02 1.1876e-15
4.0100e+02 1.1990e-15
4.0114e+02 1.2104e-15
4.0130e+02 1.2218e-15
4.0144e+02 1.2332e-15
4.0160e+02 1.2446e-15
4.0175e+02 1.2559e-15
4.0189e+02 1.2673e-15
4.0205e+02 1.2786e-15
4.0219e+02 1.2900e-15
4.0235e+02 1.3013e-15
4.0250e+02 1.3126e-15
4.0264e+02 1.3239e-15
4.0280e+02 1.3352e-15
4.0294e+02 1.3465e-15
4.0310e+02 1.3578e-15
4.0325e+02 1.3691e-15
4.0339e+02 1.3804e-15
4.0355e+02 1.3776e-15
4.0369e+02 1.3748e-15
4.0385e+02 1.3720e-15
4.0400e+02 1.3692e-15
4.0414e+02 1.3664e-15
4.0430e+02 1.3636e-15
4.0444e+02 1.3608e-15
4.0460e+02 1.3580e-15
4.0475e+02 1.3552e-15
4.0489e+02 1.3524e-15
4.0505e+02 1.3496e-15
4.0519e+02 1.3468e-15
4.0535e+02 1.3440e-15
4.0550e+02 1.3412e-15
4.0564e+02 1.3385e-15
4.0580e+02 1.3357e-15
4.0594e+02 1.3329e-15
4.0610e+02 1.3301e-15
4.0625e+02 1.3274e-15
4.0639e+02 1.3246e-15
4.0655e+02 1.3168e-15
4.0669e+02 1.3090e-15
4.0685e+02 1.3013e-15
4.0700e+02 1.2935e-15
4.0714e+02 1.2858e-15
4.0730e+02 1.2780e-15
4.0744e+02 1.2703e-15
4.0760e+02 1.2626e-15
4.0775e+02 1.2548e-15
4.0789e+02 1.2471e-15
4.0805e+02 1.2394e-15
4.0819e+02 1.2317e-15
4.0835e+02 1.2240e-15
4.0850e+02 1.2163e-15
4.0864e+02 1.2086e-15
4.0880e+02 1.2009e-15
4.0894e+02 1.1932e-15
4.0910e+02 1.1855e-15
4.0925e+02 1.1779e-15
4.0939e+02 1.1702e-15
4.0955e+02 1.1716e-15
4.0969e+02 1.1730e-15
4.0985e+02 1.1744e-15
4.1000e+02 1.1759e-15
4.1014e+02 1.1773e-15
4.1030e+02 1.1787e-15
4.1044e+02 1.1801e-15
4.1060e+02 1.1815e-15
4.1075e+02 1.1830e-15
4.1089e+02 1.1844e-15
4.1105e+02 1.1858e-15
4.1119e+02 1.1872e-15
4.1135e+02 1.1886e-15
4.1150e+02 1.1900e-15
4.1164e+02 1.1914e-15
4.1180e+02 1.1928e-15
4.1194e+02 1.1943e-15
4.1210e+02 1.1957e-15
4.1225e+02 1.1971e-15
4.1239e+02 1.1985e-15
4.1255e+02 1.1995e-15
4.1269e+02 1.2005e-15
4.1285e+02 1.2015e-15
4.1300e+02 1.2025e-15
4.1314e+02 1.2036e-15
4.1330e+02 1.2046e-15
4.1344e+02 1.2056e-15
4.1360e+02 1.2066e-15
4.1375e+02 1.2076e-15
4.1389e+02 1.2086e-15
4.1405e+02 1.2097e-15
4.1419e+02 1.2107e-15
4.1435e+02 1.2117e-15
4.1450e+02 1.2127e-15
4.1464e+02 1.2137e-15
4.1480e+02 1.2147e-15
4.1494e+02 1.2157e-15
4.1510e+02 1.2167e-15
4.1525e+02 1.2177e-15
4.1539e+02 1.2187e-15
4.1555e+02 1.2105e-15
4.1569e+02 1.2023e-15
4.1585e+02 1.1942e-15
4.1600e+02 1.1860e-15
4.1614e+02 1.1778e-15
4.1630e+02 1.1696e-15
4.1644e+02 1.1614e-15
4.1660e+02 1.1533e-15
4.1675e+02 1.1451e-15
4.1689e+02 1.1370e-15
4.1705e+02 1.1288e-15
4.1719e+02 1.1207e-15
4.1735e+02 1.1125e-15
4.1750e+02 1.1044e-15
4.1764e+02 1.0963e-15
4.1780e+02 1.0882e-15
4.1794e+02 1.0800e-15
4.1810e+02 1.0719e-15
4.1825e+02 1.0638e-15
4.1839e+02 1.0557e-15
4.1855e+02 1.0584e-15
4.1869e+02 1.0611e-15
4.1885e+02 1.0638e-15
4.1900e+02 1.0665e-15
4.1914e+02 1.0692e-15
4.1930e+02 1.0719e-15
4.1944e+02 1.0746e-15
4.1960e+02 1.0773e-15
4.1975e+02 1.0800e-15
4.1989e+02 1.0827e-15
4.2005e+02 1.0854e-15
4.2019e+02 1.0881e-15
4.2035e+02 1.0908e-15
4.2050e+02 1.0934e-15
4.2064e+02 1.0961e-15
4.2080e+02 1.0988e-15
4.2094e+02 1.1015e-15
4.2110e+02 1.1041e-15
4.2125e+02 1.1068e-15
4.2139e+02 1.1095e-15
4.2155e+02 1.1089e-15
4.2169e+02 1.1082e-15
4.2185e+02 1.1076e-15
4.2200e+02 1.1070e-15
4.2214e+02 1.1064e-15
4.2230e+02 1.1057e-15
4.2244e+02 1.1051e-15
4.2260e+02 1.1045e-15
4.2275e+02 1.1039e-15
4.2289e+02 1.1033e-15
4.2305e+02 1.1027e-15
4.2319e+02 1.1020e-15
4.2335e+02 1.1014e-15
4.2350e+02 1.1008e-15
4.2364e+02 1.1002e-15
4.2380e+02 1.0996e-15
4.2394e+02 1.0990e-15
4.2410e+02 1.0983e-15
4.2425e+02 1.0977e-15
4.2439e+02 1.0971e-15
4.2455e+02 1.0980e-15
4.2469e+02 1.0988e-15
4.2485e+02 1.0996e-15
4.2500e+02 1.1005e-15
4.2514e+02 1.1013e-15
4.2530e+02 1.1022e-15
4.2544e+02 1.1030e-15
4.2560e+02 1.1038e-15
4.2575e+02 1.1047e-15
4.2589e+02 1.1055e-15
4.2605e+02 1.1063e-15
4.2619e+02 1.1072e-15
4.2635e+02 1.1080e-15
4.2650e+02 1.1088e-15
4.2664e+02 1.1097e-15
4.2680e+02 1.1105e-15
4.2694e+02 1.1113e-15
4.2710e+02 1.1121e-15
4.2725e+02 1.1130e-15
4.2739e+02 1.1138e-15
4.2755e+02 1.1139e-15
4.2769e+02 1.1140e-15
4.2785e+02 1.1141e-15
4.2800e+02 1.1142e-15
4.2814e+02 1.1143e-15
4.2830e+02 1.1143e-15
4.2844e+02 1.1144e-15
4.2860e+02 1.1145e-15
4.2875e+02 1.1146e-15
4.2889e+02 1.1147e-15
4.2905e+02 1.1148e-15
4.2919e+02 1.1149e-15
4.2935e+02 1.1150e-15
4.2950e+02 1.1151e-15
4.2964e+02 1.1151e-15
4.2980e+02 1.1152e-15
4.2994e+02 1.1153e-15
4.3010e+02 1.1154e-15
4.3025e+02 1.1155e-15
4.3039e+02 1.1156e-15
4.3055e+02 1.1183e-15
4.3069e+02 1.1209e-15
4.3085e+02 1.1236e-15
4.3100e+02 1.1262e-15
4.3114e+02 1.1289e-15
4.3130e+02 1.1315e-15
4.3144e+02 1.1342e-15
4.3160e+02 1.1368e-15
4.3175e+02 1.1395e-15
4.3189e+02 1.1421e-15
4.3205e+02 1.1448e-15
4.3219e+02 1.1474e-15
4.3235e+02 1.1500e-15
4.3250e+02 1.1527e-15
4.3264e+02 1.1512e-15
4.3280e+02 1.1498e-15
4.3294e+02 1.1483e-15
4.3310e+02 1.1468e-15
4.3325e+02 1.1454e-15
4.3339e+02 1.1439e-15
4.3355e+02 1.1425e-15
4.3369e+02 1.1410e-15
4.3385e+02 1.1396e-15
4.3400e+02 1.1382e-15
4.3414e+02 1.1361e-15
4.3430e+02 1.1340e-15
4.3444e+02 1.1320e-15
