# lam(nm) Flux (erg/s/cm2/Ang)
3.0439e+02 1.2368e-15
3.0455e+02 1.1876e-15
3.0469e+02 1.1383e-15
3.0485e+02 1.0892e-15
3.0500e+02 1.0400e-15
3.0514e+02 9.9095e-16
3.0530e+02 9.4189e-16
3.0544e+02 8.9292e-16
3.0560e+02 8.4396e-16
3.0575e+02 7.9509e-16
3.0589e+02 7.4622e-16
3.0605e+02 6.9745e-16
3.0619e+02 6.4867e-16
3.0635e+02 6.0000e-16
3.0650e+02 5.5132e-16
3.0664e+02 5.0274e-16
3.0680e+02 4.5416e-16
3.0694e+02 4.0567e-16
3.0710e+02 3.5718e-16
3.0725e+02 3.0879e-16
3.0739e+02 2.6039e-16
3.0755e+02 2.8413e-16
3.0769e+02 3.0787e-16
3.0785e+02 3.3156e-16
3.0800e+02 3.5525e-16
3.0814e+02 3.7890e-16
3.0830e+02 4.0254e-16
3.0844e+02 4.2614e-16
3.0860e+02 4.4974e-16
3.0875e+02 4.7329e-16
3.0889e+02 4.9685e-16
3.0905e+02 5.2036e-16
3.0919e+02 5.4386e-16
3.0935e+02 5.6733e-16
3.0950e+02 5.9079e-16
3.0964e+02 6.1420e-16
3.0980e+02 6.3762e-16
3.0994e+02 6.6099e-16
3.1010e+02 6.8436e-16
3.1025e+02 7.0769e-16
3.1039e+02 7.3102e-16
3.1055e+02 7.7837e-16
3.1069e+02 8.2572e-16
3.1085e+02 8.7297e-16
3.1100e+02 9.2023e-16
3.1114e+02 9.6740e-16
3.1130e+02 1.0146e-15
3.1144e+02 1.0616e-15
3.1160e+02 1.1087e-15
3.1175e+02 1.1557e-15
3.1189e+02 1.2027e-15
3.1205e+02 1.2496e-15
3.1219e+02 1.2965e-15
3.1235e+02 1.3433e-15
3.1250e+02 1.3901e-15
3.1264e+02 1.4368e-15
3.1280e+02 1.4835e-15
3.1294e+02 1.5302e-15
3.1310e+02 1.5768e-15
3.1325e+02 1.6233e-15
3.1339e+02 1.6698e-15
3.1355e+02 1.6678e-15
3.1369e+02 1.6657e-15
3.1385e+02 1.6637e-15
3.1400e+02 1.6616e-15
3.1414e+02 1.6596e-15
3.1430e+02 1.6575e-15
3.1444e+02 1.6555e-15
3.1460e+02 1.6535e-15
3.1475e+02 1.6514e-15
3.1489e+02 1.6494e-15
3.1505e+02 1.6473e-15
3.1519e+02 1.6453e-15
3.1535e+02 1.6433e-15
3.1550e+02 1.6412e-15
3.1564e+02 1.6392e-15
3.1580e+02 1.6372e-15
3.1594e+02 1.6352e-15
3.1610e+02 1.6331e-15
3.1625e+02 1.6311e-15
3.1639e+02 1.6291e-15
3.1655e+02 1.6102e-15
3.1669e+02 1.5913e-15
3.1685e+02 1.5724e-15
3.1700e+02 1.5536e-15
3.1714e+02 1.5347e-15
3.1730e+02 1.5159e-15
3.1744e+02 1.4971e-15
3.1760e+02 1.4783e-15
3.1775e+02 1.4595e-15
3.1789e+02 1.4408e-15
3.1805e+02 1.4220e-15
3.1819e+02 1.4033e-15
3.1835e+02 1.3846e-15
3.1850e+02 1.3659e-15
3.1864e+02 1.3473e-15
3.1880e+02 1.3286e-15
3.1894e+02 1.3100e-15
3.1910e+02 1.2913e-15
3.1925e+02 1.2728e-15
3.1939e+02 1.2542e-15
3.1955e+02 1.2677e-15
3.1969e+02 1.2812e-15
3.1985e+02 1.2948e-15
3.2000e+02 1.3083e-15
3.2014e+02 1.3218e-15
3.2030e+02 1.3352e-15
3.2044e+02 1.3487e-15
3.2060e+02 1.3622e-15
3.2075e+02 1.3756e-15
3.2089e+02 1.3890e-15
3.2105e+02 1.4025e-15
3.2119e+02 1.4159e-15
3.2135e+02 1.4292e-15
3.2150e+02 1.4426e-15
3.2164e+02 1.4560e-15
3.2180e+02 1.4694e-15
3.2194e+02 1.4827e-15
3.2210e+02 1.4960e-15
3.2225e+02 1.5093e-15
3.2239e+02 1.5227e-15
3.2255e+02 1.5022e-15
3.2269e+02 1.4818e-15
3.2285e+02 1.4614e-15
3.2300e+02 1.4410e-15
3.2314e+02 1.4206e-15
3.2330e+02 1.4003e-15
3.2344e+02 1.3800e-15
3.2360e+02 1.3596e-15
3.2375e+02 1.3393e-15
3.2389e+02 1.3191e-15
3.2405e+02 1.2988e-15
3.2419e+02 1.2786e-15
3.2435e+02 1.2584e-15
3.2450e+02 1.2382e-15
3.2464e+02 1.2180e-15
3.2480e+02 1.1978e-15
3.2494e+02 1.1777e-15
3.2510e+02 1.1575e-15
3.2525e+02 1.1374e-15
3.2539e+02 1.1174e-15
3.2555e+02 1.1392e-15
3.2569e+02 1.1611e-15
3.2585e+02 1.1829e-15
3.2600e+02 1.2048e-15
3.2614e+02 1.2266e-15
3.2630e+02 1.2483e-15
3.2644e+02 1.2701e-15
3.2660e+02 1.2918e-15
3.2675e+02 1.3136e-15
3.2689e+02 1.3353e-15
3.2705e+02 1.3569e-15
3.2719e+02 1.3786e-15
3.2735e+02 1.4002e-15
3.2750e+02 1.4219e-15
3.2764e+02 1.4435e-15
3.2780e+02 1.4651e-15
3.2794e+02 1.4866e-15
3.2810e+02 1.5082e-15
3.2825e+02 1.5297e-15
3.2839e+02 1.5512e-15
3.2855e+02 1.5431e-15
3.2869e+02 1.5349e-15
3.2885e+02 1.5268e-15
3.2900e+02 1.5187e-15
3.2914e+02 1.5106e-15
3.2930e+02 1.5025e-15
3.2944e+02 1.4944e-15
3.2960e+02 1.4863e-15
3.2975e+02 1.4782e-15
3.2989e+02 1.4701e-15
3.3005e+02 1.4621e-15
3.3019e+02 1.4540e-15
3.3035e+02 1.4460e-15
3.3050e+02 1.4379e-15
3.3064e+02 1.4299e-15
3.3080e+02 1.4218e-15
3.3094e+02 1.4138e-15
3.3110e+02 1.4058e-15
3.3125e+02 1.3978e-15
3.3139e+02 1.3898e-15
3.3155e+02 1.3839e-15
3.3169e+02 1.3781e-15
3.3185e+02 1.3722e-15
3.3200e+02 1.3663e-15
3.3214e+02 1.3605e-15
3.3230e+02 1.3546e-15
3.3244e+02 1.3488e-15
3.3260e+02 1.3430e-15
3.3275e+02 1.3371e-15
3.3289e+02 1.3313e-15
3.3305e+02 1.3255e-15
3.3319e+02 1.3197e-15
3.3335e+02 1.3139e-15
3.3350e+02 1.3081e-15
3.3364e+02 1.3023e-15
3.3380e+02 1.2965e-15
3.3394e+02 1.2907e-15
3.3410e+02 1.2849e-15
3.3425e+02 1.2791e-15
3.3439e+02 1.2734e-15
3.3455e+02 1.2677e-15
3.3469e+02 1.2621e-15
3.3485e+02 1.2564e-15
3.3500e+02 1.2508e-15
3.3514e+02 1.2452e-15
3.3530e+02 1.2396e-15
3.3544e+02 1.2340e-15
3.3560e+02 1.2283e-15
3.3575e+02 1.2227e-15
3.3589e+02 1.2171e-15
3.3605e+02 1.2116e-15
3.3619e+02 1.2060e-15
3.3635e+02 1.2004e-15
3.3650e+02 1.1948e-15
3.3664e+02 1.1892e-15
3.3680e+02 1.1837e-15
3.3694e+02 1.1781e-15
3.3710e+02 1.1725e-15
3.3725e+02 1.1670e-15
3.3739e+02 1.1614e-15
3.3755e+02 1.1780e-15
3.3769e+02 1.1946e-15
3.3785e+02 1.2112e-15
3.3800e+02 1.2277e-15
3.3814e+02 1.2442e-15
3.3830e+02 1.2608e-15
3.3844e+02 1.2773e-15
3.3860e+02 1.2938e-15
3.3875e+02 1.3102e-15
3.3889e+02 1.3267e-15
3.3905e+02 1.3431e-15
3.3919e+02 1.3596e-15
3.3935e+02 1.3760e-15
3.3950e+02 1.3924e-15
3.3964e+02 1.4088e-15
3.3980e+02 1.4252e-15
3.3994e+02 1.4415e-15
3.4010e+02 1.4579e-15
3.4025e+02 1.4742e-15
3.4039e+02 1.4905e-15
3.4055e+02 1.4813e-15
3.4069e+02 1.4721e-15
3.4085e+02 1.4629e-15
3.4100e+02 1.4538e-15
3.4114e+02 1.4446e-15
3.4130e+02 1.4354e-15
3.4144e+02 1.4263e-15
3.4160e+02 1.4171e-15
3.4175e+02 1.4080e-15
3.4189e+02 1.3989e-15
3.4205e+02 1.3898e-15
3.4219e+02 1.3807e-15
3.4235e+02 1.3716e-15
3.4250e+02 1.3625e-15
3.4264e+02 1.3534e-15
3.4280e+02 1.3443e-15
3.4294e+02 1.3352e-15
3.4310e+02 1.3262e-15
3.4325e+02 1.3171e-15
3.4339e+02 1.3081e-15
3.4355e+02 1.3121e-15
3.4369e+02 1.3162e-15
3.4385e+02 1.3203e-15
3.4400e+02 1.3243e-15
3.4414e+02 1.3284e-15
3.4430e+02 1.3325e-15
3.4444e+02 1.3365e-15
3.4460e+02 1.3406e-15
3.4475e+02 1.3446e-15
3.4489e+02 1.3487e-15
3.4505e+02 1.3527e-15
3.4519e+02 1.3567e-15
3.4535e+02 1.3608e-15
3.4550e+02 1.3648e-15
3.4564e+02 1.3688e-15
3.4580e+02 1.3728e-15
3.4594e+02 1.3769e-15
3.4610e+02 1.3809e-15
3.4625e+02 1.3849e-15
3.4639e+02 1.3889e-15
3.4655e+02 1.3919e-15
3.4669e+02 1.3948e-15
3.4685e+02 1.3978e-15
3.4700e+02 1.4007e-15
3.4714e+02 1.4037e-15
3.4730e+02 1.4067e-15
3.4744e+02 1.4096e-15
3.4760e+02 1.4126e-15
3.4775e+02 1.4155e-15
3.4789e+02 1.4184e-15
3.4805e+02 1.4214e-15
3.4819e+02 1.4243e-15
3.4835e+02 1.4273e-15
3.4850e+02 1.4302e-15
3.4864e+02 1.4331e-15
3.4880e+02 1.4361e-15
3.4894e+02 1.4390e-15
3.4910e+02 1.4419e-15
3.4925e+02 1.4448e-15
3.4939e+02 1.4477e-15
3.4955e+02 1.4267e-15
3.4969e+02 1.4056e-15
3.4985e+02 1.3846e-15
3.5000e+02 1.3636e-15
3.5014e+02 1.3426e-15
3.5030e+02 1.3216e-15
3.5044e+02 1.3006e-15
3.5060e+02 1.2797e-15
3.5075e+02 1.2588e-15
3.5089e+02 1.2378e-15
3.5105e+02 1.2170e-15
3.5119e+02 1.1961e-15
3.5135e+02 1.1752e-15
3.5150e+02 1.1544e-15
3.5164e+02 1.1336e-15
3.5180e+02 1.1128e-15
3.5194e+02 1.0920e-15
3.5210e+02 1.0712e-15
3.5225e+02 1.0505e-15
3.5239e+02 1.0297e-15
3.5255e+02 1.0515e-15
3.5269e+02 1.0732e-15
3.5285e+02 1.0950e-15
3.5300e+02 1.1167e-15
3.5314e+02 1.1384e-15
3.5330e+02 1.1601e-15
3.5344e+02 1.1817e-15
3.5360e+02 1.2034e-15
3.5375e+02 1.2250e-15
3.5389e+02 1.2466e-15
3.5405e+02 1.2682e-15
3.5419e+02 1.2898e-15
3.5435e+02 1.3114e-15
3.5450e+02 1.3329e-15
3.5464e+02 1.3544e-15
3.5480e+02 1.3759e-15
3.5494e+02 1.3974e-15
3.5510e+02 1.4189e-15
3.5525e+02 1.4403e-15
3.5539e+02 1.4617e-15
3.5555e+02 1.4376e-15
3.5569e+02 1.4134e-15
3.5585e+02 1.3893e-15
3.5600e+02 1.3652e-15
3.5614e+02 1.3411e-15
3.5630e+02 1.3170e-15
3.5644e+02 1.2930e-15
3.5660e+02 1.2690e-15
3.5675e+02 1.2450e-15
3.5689e+02 1.2210e-15
3.5705e+02 1.1970e-15
3.5719e+02 1.1731e-15
3.5735e+02 1.1491e-15
3.5750e+02 1.1252e-15
3.5764e+02 1.1013e-15
3.5780e+02 1.0775e-15
3.5794e+02 1.0536e-15
3.5810e+02 1.0298e-15
3.5825e+02 1.0060e-15
3.5839e+02 9.8220e-16
3.5855e+02 9.6455e-16
3.5869e+02 9.4690e-16
3.5885e+02 9.2928e-16
3.5900e+02 9.1166e-16
3.5914e+02 8.9406e-16
3.5930e+02 8.7647e-16
3.5944e+02 8.5891e-16
3.5960e+02 8.4134e-16
3.5975e+02 8.2381e-16
3.5989e+02 8.0627e-16
3.6005e+02 7.8877e-16
3.6019e+02 7.7126e-16
3.6035e+02 7.5379e-16
3.6050e+02 7.3631e-16
3.6064e+02 7.1887e-16
3.6080e+02 7.0142e-16
3.6094e+02 6.8400e-16
3.6110e+02 6.6658e-16
3.6125e+02 6.4920e-16
3.6139e+02 6.3181e-16
3.6155e+02 6.1367e-16
3.6169e+02 5.9554e-16
3.6185e+02 5.7744e-16
3.6200e+02 5.5933e-16
3.6214e+02 5.4126e-16
3.6230e+02 5.2318e-16
3.6244e+02 5.0514e-16
3.6260e+02 4.8710e-16
3.6275e+02 4.6908e-16
3.6289e+02 4.5107e-16
3.6305e+02 4.3309e-16
3.6319e+02 4.1510e-16
3.6335e+02 3.9715e-16
3.6350e+02 3.7919e-16
3.6364e+02 3.6127e-16
3.6380e+02 3.4334e-16
3.6394e+02 3.2545e-16
3.6410e+02 3.0755e-16
3.6425e+02 2.8969e-16
3.6439e+02 2.7182e-16
3.6455e+02 3.0409e-16
3.6469e+02 3.3636e-16
3.6485e+02 3.6857e-16
3.6500e+02 4.0078e-16
3.6514e+02 4.3295e-16
3.6530e+02 4.6511e-16
3.6544e+02 4.9722e-16
3.6560e+02 5.2932e-16
3.6575e+02 5.6138e-16
3.6589e+02 5.9344e-16
3.6605e+02 6.2544e-16
3.6619e+02 6.5744e-16
3.6635e+02 6.8939e-16
3.6650e+02 7.2135e-16
3.6664e+02 7.5324e-16
3.6680e+02 7.8514e-16
3.6694e+02 8.1699e-16
3.6710e+02 8.4884e-16
3.6725e+02 8.8063e-16
3.6739e+02 9.1243e-16
3.6755e+02 9.3791e-16
3.6769e+02 9.6339e-16
3.6785e+02 9.8884e-16
3.6800e+02 1.0143e-15
3.6814e+02 1.0397e-15
3.6830e+02 1.0651e-15
3.6844e+02 1.0904e-15
3.6860e+02 1.1158e-15
3.6875e+02 1.1411e-15
3.6889e+02 1.1664e-15
3.6905e+02 1.1917e-15
3.6919e+02 1.2170e-15
3.6935e+02 1.2422e-15
3.6950e+02 1.2675e-15
3.6964e+02 1.2927e-15
3.6980e+02 1.3179e-15
3.6994e+02 1.3430e-15
3.7010e+02 1.3682e-15
3.7025e+02 1.3933e-15
3.7039e+02 1.4184e-15
3.7055e+02 1.4219e-15
3.7069e+02 1.4254e-15
3.7085e+02 1.4289e-15
3.7100e+02 1.4325e-15
3.7114e+02 1.4360e-15
3.7130e+02 1.4395e-15
3.7144e+02 1.4430e-15
3.7160e+02 1.4465e-15
3.7175e+02 1.4500e-15
3.7189e+02 1.4534e-15
3.7205e+02 1.4569e-15
3.7219e+02 1.4604e-15
3.7235e+02 1.4639e-15
3.7250e+02 1.4674e-15
3.7264e+02 1.4709e-15
3.7280e+02 1.4743e-15
3.7294e+02 1.4778e-15
3.7310e+02 1.4813e-15
3.7325e+02 1.4847e-15
3.7339e+02 1.4882e-15
3.7355e+02 1.4833e-15
3.7369e+02 1.4785e-15
3.7385e+02 1.4736e-15
3.7400e+02 1.4687e-15
3.7414e+02 1.4639e-15
3.7430e+02 1.4590e-15
3.7444e+02 1.4542e-15
3.7460e+02 1.4493e-15
3.7475e+02 1.4445e-15
3.7489e+02 1.4396e-15
3.7505e+02 1.4348e-15
3.7519e+02 1.4299e-15
3.7535e+02 1.4251e-15
3.7550e+02 1.4203e-15
3.7564e+02 1.4155e-15
3.7580e+02 1.4106e-15
3.7594e+02 1.4058e-15
3.7610e+02 1.4010e-15
3.7625e+02 1.3962e-15
3.7639e+02 1.3914e-15
3.7655e+02 1.3807e-15
3.7669e+02 1.3700e-15
3.7685e+02 1.3593e-15
3.7700e+02 1.3486e-15
3.7714e+02 1.3379e-15
3.7730e+02 1.3272e-15
3.7744e+02 1.3166e-15
3.7760e+02 1.3059e-15
3.7775e+02 1.2953e-15
3.7789e+02 1.2846e-15
3.7805e+02 1.2740e-15
3.7819e+02 1.2634e-15
3.7835e+02 1.2528e-15
3.7850e+02 1.2422e-15
3.7864e+02 1.2316e-15
3.7880e+02 1.2210e-15
3.7894e+02 1.2104e-15
3.7910e+02 1.1998e-15
3.7925e+02 1.1893e-15
3.7939e+02 1.1787e-15
3.7955e+02 1.1914e-15
3.7969e+02 1.2040e-15
3.7985e+02 1.2167e-15
3.8000e+02 1.2293e-15
3.8014e+02 1.2419e-15
3.8030e+02 1.2545e-15
3.8044e+02 1.2671e-15
3.8060e+02 1.2797e-15
3.8075e+02 1.2923e-15
3.8089e+02 1.3049e-15
3.8105e+02 1.3174e-15
3.8119e+02 1.3300e-15
3.8135e+02 1.3425e-15
3.8150e+02 1.3551e-15
3.8164e+02 1.3676e-15
3.8180e+02 1.3801e-15
3.8194e+02 1.3926e-15
3.8210e+02 1.4051e-15
3.8225e+02 1.4176e-15
3.8239e+02 1.4301e-15
3.8255e+02 1.4307e-15
3.8269e+02 1.4314e-15
3.8285e+02 1.4321e-15
3.8300e+02 1.4328e-15
3.8314e+02 1.4334e-15
3.8330e+02 1.4341e-15
3.8344e+02 1.4348e-15
3.8360e+02 1.4354e-15
3.8375e+02 1.4361e-15
3.8389e+02 1.4368e-15
3.8405e+02 1.4375e-15
3.8419e+02 1.4381e-15
3.8435e+02 1.4388e-15
3.8450e+02 1.4395e-15
3.8464e+02 1.4401e-15
3.8480e+02 1.4408e-15
3.8494e+02 1.4415e-15
3.8510e+02 1.4421e-15
3.8525e+02 1.4428e-15
3.8539e+02 1.4435e-15
3.8555e+02 1.4252e-15
3.8569e+02 1.4070e-15
3.8585e+02 1.3888e-15
3.8600e+02 1.3706e-15
3.8614e+02 1.3524e-15
3.8630e+02 1.3342e-15
3.8644e+02 1.3161e-15
3.8660e+02 1.2979e-15
3.8675e+02 1.2798e-15
3.8689e+02 1.2617e-15
3.8705e+02 1.2436e-15
3.8719e+02 1.2255e-15
3.8735e+02 1.2075e-15
3.8750e+02 1.1894e-15
3.8764e+02 1.1714e-15
3.8780e+02 1.1533e-15
3.8794e+02 1.1353e-15
3.8810e+02 1.1173e-15
3.8825e+02 1.0993e-15
3.8839e+02 1.0814e-15
3.8855e+02 1.0832e-15
3.8869e+02 1.0851e-15
3.8885e+02 1.0869e-15
3.8900e+02 1.0888e-15
3.8914e+02 1.0907e-15
3.8930e+02 1.0925e-15
3.8944e+02 1.0944e-15
3.8960e+02 1.0962e-15
3.8975e+02 1.0981e-15
3.8989e+02 1.0999e-15
3.9005e+02 1.1018e-15
3.9019e+02 1.1036e-15
3.9035e+02 1.1055e-15
3.9050e+02 1.1073e-15
3.9064e+02 1.1091e-15
3.9080e+02 1.1110e-15
3.9094e+02 1.1128e-15
3.9110e+02 1.1147e-15
3.9125e+02 1.1165e-15
3.9139e+02 1.1184e-15
3.9155e+02 1.1310e-15
3.9169e+02 1.1437e-15
3.9185e+02 1.1564e-15
3.9200e+02 1.1690e-15
3.9214e+02 1.1817e-15
3.9230e+02 1.1943e-15
3.9244e+02 1.2069e-15
3.9260e+02 1.2196e-15
3.9275e+02 1.2322e-15
3.9289e+02 1.2448e-15
3.9305e+02 1.2574e-15
3.9319e+02 1.2699e-15
3.9335e+02 1.2825e-15
3.9350e+02 1.2951e-15
3.9364e+02 1.3076e-15
3.9380e+02 1.3202e-15
3.9394e+02 1.3327e-15
3.9410e+02 1.3452e-15
3.9425e+02 1.3577e-15
3.9439e+02 1.3702e-15
3.9455e+02 1.3646e-15
3.9469e+02 1.3590e-15
3.9485e+02 1.3534e-15
3.9500e+02 1.3478e-15
3.9514e+02 1.3422e-15
3.9530e+02 1.3366e-15
3.9544e+02 1.3311e-15
3.9560e+02 1.3255e-15
3.9575e+02 1.3199e-15
3.9589e+02 1.3143e-15
3.9605e+02 1.3088e-15
3.9619e+02 1.3032e-15
3.9635e+02 1.2977e-15
3.9650e+02 1.2921e-15
3.9664e+02 1.2865e-15
3.9680e+02 1.2810e-15
3.9694e+02 1.2755e-15
3.9710e+02 1.2699e-15
3.9725e+02 1.2644e-15
3.9739e+02 1.2589e-15
3.9755e+02 1.2500e-15
3.9769e+02 1.2411e-15
3.9785e+02 1.2322e-15
3.9800e+02 1.2234e-15
3.9814e+02 1.2145e-15
3.9830e+02 1.2056e-15
3.9844e+02 1.1968e-15
3.9860e+02 1.1879e-15
3.9875e+02 1.1791e-15
3.9889e+02 1.1703e-15
3.9905e+02 1.1615e-15
3.9919e+02 1.1527e-15
3.9935e+02 1.1439e-15
3.9950e+02 1.1350e-15
3.9964e+02 1.1263e-15
3.9980e+02 1.1175e-15
3.9994e+02 1.1087e-15
4.0010e+02 1.0999e-15
4.0025e+02 1.0912e-15
4.0039e+02 1.0824e-15
4.0055e+02 1.0931e-15
4.0069e+02 1.1038e-15
4.0085e+02 1.1145e-15
4.0100e+02 1.1253e-15
4.0114e+02 1.1360e-15
4.0130e+02 1.1467e-15
4.0144e+02 1.1573e-15
4.0160e+02 1.1680e-15
4.0175e+02 1.1787e-15
4.0189e+02 1.1893e-15
4.0205e+02 1.2000e-15
4.0219e+02 1.2106e-15
4.0235e+02 1.2213e-15
4.0250e+02 1.2319e-15
4.0264e+02 1.2425e-15
4.0280e+02 1.2531e-15
4.0294e+02 1.2637e-15
4.0310e+02 1.2743e-15
4.0325e+02 1.2849e-15
4.0339e+02 1.2955e-15
4.0355e+02 1.2928e-15
4.0369e+02 1.2902e-15
4.0385e+02 1.2876e-15
4.0400e+02 1.2850e-15
4.0414e+02 1.2823e-15
4.0430e+02 1.2797e-15
4.0444e+02 1.2771e-15
4.0460e+02 1.2744e-15
4.0475e+02 1.2718e-15
4.0489e+02 1.2692e-15
4.0505e+02 1.2666e-15
4.0519e+02 1.2640e-15
4.0535e+02 1.2614e-15
4.0550e+02 1.2588e-15
4.0564e+02 1.2561e-15
4.0580e+02 1.2535e-15
4.0594e+02 1.2509e-15
4.0610e+02 1.2483e-15
4.0625e+02 1.2457e-15
4.0639e+02 1.2431e-15
4.0655e+02 1.2358e-15
4.0669e+02 1.2286e-15
4.0685e+02 1.2213e-15
4.0700e+02 1.2140e-15
4.0714e+02 1.2067e-15
4.0730e+02 1.1994e-15
4.0744e+02 1.1922e-15
4.0760e+02 1.1849e-15
4.0775e+02 1.1777e-15
4.0789e+02 1.1704e-15
4.0805e+02 1.1632e-15
4.0819e+02 1.1559e-15
4.0835e+02 1.1487e-15
4.0850e+02 1.1415e-15
4.0864e+02 1.1343e-15
4.0880e+02 1.1270e-15
4.0894e+02 1.1198e-15
4.0910e+02 1.1126e-15
4.0925e+02 1.1054e-15
4.0939e+02 1.0982e-15
4.0955e+02 1.0996e-15
4.0969e+02 1.1009e-15
4.0985e+02 1.1022e-15
4.1000e+02 1.1036e-15
4.1014e+02 1.1049e-15
4.1030e+02 1.1062e-15
4.1044e+02 1.1076e-15
4.1060e+02 1.1089e-15
4.1075e+02 1.1102e-15
4.1089e+02 1.1115e-15
4.1105e+02 1.1129e-15
4.1119e+02 1.1142e-15
4.1135e+02 1.1155e-15
4.1150e+02 1.1168e-15
4.1164e+02 1.1182e-15
4.1180e+02 1.1195e-15
4.1194e+02 1.1208e-15
4.1210e+02 1.1221e-15
4.1225e+02 1.1234e-15
4.1239e+02 1.1248e-15
4.1255e+02 1.1257e-15
4.1269e+02 1.1267e-15
4.1285e+02 1.1276e-15
4.1300e+02 1.1286e-15
4.1314e+02 1.1295e-15
4.1330e+02 1.1305e-15
4.1344e+02 1.1314e-15
4.1360e+02 1.1324e-15
4.1375e+02 1.1334e-15
4.1389e+02 1.1343e-15
4.1405e+02 1.1353e-15
4.1419e+02 1.1362e-15
4.1435e+02 1.1372e-15
4.1450e+02 1.1381e-15
4.1464e+02 1.1391e-15
4.1480e+02 1.1400e-15
4.1494e+02 1.1410e-15
4.1510e+02 1.1419e-15
4.1525e+02 1.1429e-15
4.1539e+02 1.1438e-15
4.1555e+02 1.1361e-15
4.1569e+02 1.1284e-15
4.1585e+02 1.1207e-15
4.1600e+02 1.1130e-15
4.1614e+02 1.1053e-15
4.1630e+02 1.0977e-15
4.1644e+02 1.0900e-15
4.1660e+02 1.0823e-15
4.1675e+02 1.0747e-15
4.1689e+02 1.0670e-15
4.1705e+02 1.0594e-15
4.1719e+02 1.0517e-15
4.1735e+02 1.0441e-15
4.1750e+02 1.0365e-15
4.1764e+02 1.0289e-15
4.1780e+02 1.0212e-15
4.1794e+02 1.0136e-15
4.1810e+02 1.0060e-15
4.1825e+02 9.9842e-16
4.1839e+02 9.9082e-16
4.1855e+02 9.9335e-16
4.1869e+02 9.9589e-16
4.1885e+02 9.9842e-16
4.1900e+02 1.0010e-15
4.1914e+02 1.0035e-15
4.1930e+02 1.0060e-15
4.1944e+02 1.0085e-15
4.1960e+02 1.0111e-15
4.1975e+02 1.0136e-15
4.1989e+02 1.0161e-15
4.2005e+02 1.0186e-15
4.2019e+02 1.0212e-15
4.2035e+02 1.0237e-15
4.2050e+02 1.0262e-15
4.2064e+02 1.0287e-15
4.2080e+02 1.0312e-15
4.2094e+02 1.0337e-15
4.2110e+02 1.0362e-15
4.2125e+02 1.0387e-15
4.2139e+02 1.0412e-15
4.2155e+02 1.0407e-15
4.2169e+02 1.0401e-15
4.2185e+02 1.0395e-15
4.2200e+02 1.0389e-15
4.2214e+02 1.0383e-15
4.2230e+02 1.0377e-15
4.2244e+02 1.0372e-15
4.2260e+02 1.0366e-15
4.2275e+02 1.0360e-15
4.2289e+02 1.0354e-15
4.2305e+02 1.0348e-15
4.2319e+02 1.0343e-15
4.2335e+02 1.0337e-15
4.2350e+02 1.0331e-15
4.2364e+02 1.0325e-15
4.2380e+02 1.0320e-15
4.2394e+02 1.0314e-15
4.2410e+02 1.0308e-15
4.2425e+02 1.0302e-15
4.2439e+02 1.0296e-15
4.2455e+02 1.0304e-15
4.2469e+02 1.0312e-15
4.2485e+02 1.0320e-15
4.2500e+02 1.0328e-15
4.2514e+02 1.0336e-15
4.2530e+02 1.0344e-15
4.2544e+02 1.0352e-15
4.2560e+02 1.0359e-15
4.2575e+02 1.0367e-15
4.2589e+02 1.0375e-15
4.2605e+02 1.0383e-15
4.2619e+02 1.0391e-15
4.2635e+02 1.0398e-15
4.2650e+02 1.0406e-15
4.2664e+02 1.0414e-15
4.2680e+02 1.0422e-15
4.2694e+02 1.0430e-15
4.2710e+02 1.0437e-15
4.2725e+02 1.0445e-15
4.2739e+02 1.0453e-15
4.2755e+02 1.0454e-15
4.2769e+02 1.0455e-15
4.2785e+02 1.0456e-15
4.2800e+02 1.0456e-15
4.2814e+02 1.0457e-15
4.2830e+02 1.0458e-15
4.2844e+02 1.0459e-15
4.2860e+02 1.0460e-15
4.2875e+02 1.0461e-15
4.2889e+02 1.0461e-15
4.2905e+02 1.0462e-15
4.2919e+02 1.0463e-15
4.2935e+02 1.0464e-15
4.2950e+02 1.0465e-15
4.2964e+02 1.0466e-15
4.2980e+02 1.0467e-15
4.2994e+02 1.0467e-15
4.3010e+02 1.0468e-15
4.3025e+02 1.0469e-15
4.3039e+02 1.0470e-15
4.3055e+02 1.0495e-15
4.3069e+02 1.0520e-15
4.3085e+02 1.0545e-15
4.3100e+02 1.0570e-15
4.3114e+02 1.0594e-15
4.3130e+02 1.0619e-15
4.3144e+02 1.0644e-15
4.3160e+02 1.0669e-15
4.3175e+02 1.0694e-15
4.3189e+02 1.0719e-15
4.3205e+02 1.0744e-15
4.3219e+02 1.0768e-15
4.3235e+02 1.0793e-15
4.3250e+02 1.0818e-15
4.3264e+02 1.0804e-15
4.3280e+02 1.0790e-15
4.3294e+02 1.0777e-15
4.3310e+02 1.0763e-15
4.3325e+02 1.0750e-15
4.3339e+02 1.0736e-15
4.3355e+02 1.0722e-15
4.3369e+02 1.0709e-15
4.3385e+02 1.0695e-15
4.3400e+02 1.0682e-15
4.3414e+02 1.0662e-15
4.3430e+02 1.0643e-15
4.3444e+02 1.0623e-15
