# lam(nm) Flux (erg/s/cm2/Ang)
3.0439e+02 1.7458e-15
3.0455e+02 1.7093e-15
3.0469e+02 1.6727e-15
3.0485e+02 1.6362e-15
3.0500e+02 1.5997e-15
3.0514e+02 1.5633e-15
3.0530e+02 1.5269e-15
3.0544e+02 1.4905e-15
3.0560e+02 1.4542e-15
3.0575e+02 1.4179e-15
3.0589e+02 1.3816e-15
3.0605e+02 1.3454e-15
3.0619e+02 1.3092e-15
3.0635e+02 1.2730e-15
3.0650e+02 1.2369e-15
3.0664e+02 1.2008e-15
3.0680e+02 1.1648e-15
3.0694e+02 1.1288e-15
3.0710e+02 1.0928e-15
3.0725e+02 1.0569e-15
3.0739e+02 1.0209e-15
3.0755e+02 1.0409e-15
3.0769e+02 1.0608e-15
3.0785e+02 1.0807e-15
3.0800e+02 1.1005e-15
3.0814e+02 1.1204e-15
3.0830e+02 1.1402e-15
3.0844e+02 1.1600e-15
3.0860e+02 1.1798e-15
3.0875e+02 1.1996e-15
3.0889e+02 1.2194e-15
3.0905e+02 1.2391e-15
3.0919e+02 1.2588e-15
3.0935e+02 1.2785e-15
3.0950e+02 1.2982e-15
3.0964e+02 1.3178e-15
3.0980e+02 1.3375e-15
3.0994e+02 1.3571e-15
3.1010e+02 1.3767e-15
3.1025e+02 1.3963e-15
3.1039e+02 1.4159e-15
3.1055e+02 1.4486e-15
3.1069e+02 1.4814e-15
3.1085e+02 1.5141e-15
3.1100e+02 1.5468e-15
3.1114e+02 1.5795e-15
3.1130e+02 1.6121e-15
3.1144e+02 1.6447e-15
3.1160e+02 1.6773e-15
3.1175e+02 1.7098e-15
3.1189e+02 1.7423e-15
3.1205e+02 1.7748e-15
3.1219e+02 1.8072e-15
3.1235e+02 1.8396e-15
3.1250e+02 1.8720e-15
3.1264e+02 1.9044e-15
3.1280e+02 1.9367e-15
3.1294e+02 1.9690e-15
3.1310e+02 2.0012e-15
3.1325e+02 2.0334e-15
3.1339e+02 2.0656e-15
3.1355e+02 2.0568e-15
3.1369e+02 2.0480e-15
3.1385e+02 2.0391e-15
3.1400e+02 2.0303e-15
3.1414e+02 2.0215e-15
3.1430e+02 2.0127e-15
3.1444e+02 2.0039e-15
3.1460e+02 1.9951e-15
3.1475e+02 1.9863e-15
3.1489e+02 1.9775e-15
3.1505e+02 1.9687e-15
3.1519e+02 1.9600e-15
3.1535e+02 1.9512e-15
3.1550e+02 1.9425e-15
3.1564e+02 1.9338e-15
3.1580e+02 1.9250e-15
3.1594e+02 1.9163e-15
3.1610e+02 1.9076e-15
3.1625e+02 1.8989e-15
3.1639e+02 1.8902e-15
3.1655e+02 1.8715e-15
3.1669e+02 1.8529e-15
3.1685e+02 1.8342e-15
3.1700e+02 1.8156e-15
3.1714e+02 1.7970e-15
3.1730e+02 1.7784e-15
3.1744e+02 1.7599e-15
3.1760e+02 1.7413e-15
3.1775e+02 1.7228e-15
3.1789e+02 1.7043e-15
3.1805e+02 1.6858e-15
3.1819e+02 1.6673e-15
3.1835e+02 1.6488e-15
3.1850e+02 1.6304e-15
3.1864e+02 1.6120e-15
3.1880e+02 1.5935e-15
3.1894e+02 1.5752e-15
3.1910e+02 1.5568e-15
3.1925e+02 1.5384e-15
3.1939e+02 1.5201e-15
3.1955e+02 1.5295e-15
3.1969e+02 1.5389e-15
3.1985e+02 1.5483e-15
3.2000e+02 1.5577e-15
3.2014e+02 1.5670e-15
3.2030e+02 1.5764e-15
3.2044e+02 1.5857e-15
3.2060e+02 1.5951e-15
3.2075e+02 1.6044e-15
3.2089e+02 1.6138e-15
3.2105e+02 1.6231e-15
3.2119e+02 1.6324e-15
3.2135e+02 1.6417e-15
3.2150e+02 1.6510e-15
3.2164e+02 1.6603e-15
3.2180e+02 1.6696e-15
3.2194e+02 1.6788e-15
3.2210e+02 1.6881e-15
3.2225e+02 1.6973e-15
3.2239e+02 1.7066e-15
3.2255e+02 1.6950e-15
3.2269e+02 1.6833e-15
3.2285e+02 1.6717e-15
3.2300e+02 1.6601e-15
3.2314e+02 1.6485e-15
3.2330e+02 1.6369e-15
3.2344e+02 1.6254e-15
3.2360e+02 1.6138e-15
3.2375e+02 1.6023e-15
3.2389e+02 1.5907e-15
3.2405e+02 1.5792e-15
3.2419e+02 1.5677e-15
3.2435e+02 1.5562e-15
3.2450e+02 1.5447e-15
3.2464e+02 1.5332e-15
3.2480e+02 1.5217e-15
3.2494e+02 1.5102e-15
3.2510e+02 1.4988e-15
3.2525e+02 1.4873e-15
3.2539e+02 1.4759e-15
3.2555e+02 1.4898e-15
3.2569e+02 1.5037e-15
3.2585e+02 1.5175e-15
3.2600e+02 1.5314e-15
3.2614e+02 1.5452e-15
3.2630e+02 1.5591e-15
3.2644e+02 1.5729e-15
3.2660e+02 1.5867e-15
3.2675e+02 1.6005e-15
3.2689e+02 1.6142e-15
3.2705e+02 1.6280e-15
3.2719e+02 1.6418e-15
3.2735e+02 1.6555e-15
3.2750e+02 1.6692e-15
3.2764e+02 1.6829e-15
3.2780e+02 1.6966e-15
3.2794e+02 1.7103e-15
3.2810e+02 1.7240e-15
3.2825e+02 1.7377e-15
3.2839e+02 1.7513e-15
3.2855e+02 1.7442e-15
3.2869e+02 1.7371e-15
3.2885e+02 1.7300e-15
3.2900e+02 1.7230e-15
3.2914e+02 1.7159e-15
3.2930e+02 1.7088e-15
3.2944e+02 1.7018e-15
3.2960e+02 1.6947e-15
3.2975e+02 1.6877e-15
3.2989e+02 1.6806e-15
3.3005e+02 1.6736e-15
3.3019e+02 1.6666e-15
3.3035e+02 1.6596e-15
3.3050e+02 1.6525e-15
3.3064e+02 1.6455e-15
3.3080e+02 1.6385e-15
3.3094e+02 1.6315e-15
3.3110e+02 1.6245e-15
3.3125e+02 1.6176e-15
3.3139e+02 1.6106e-15
3.3155e+02 1.6087e-15
3.3169e+02 1.6067e-15
3.3185e+02 1.6048e-15
3.3200e+02 1.6029e-15
3.3214e+02 1.6010e-15
3.3230e+02 1.5990e-15
3.3244e+02 1.5971e-15
3.3260e+02 1.5952e-15
3.3275e+02 1.5933e-15
3.3289e+02 1.5914e-15
3.3305e+02 1.5895e-15
3.3319e+02 1.5876e-15
3.3335e+02 1.5856e-15
3.3350e+02 1.5837e-15
3.3364e+02 1.5818e-15
3.3380e+02 1.5799e-15
3.3394e+02 1.5780e-15
3.3410e+02 1.5761e-15
3.3425e+02 1.5742e-15
3.3439e+02 1.5724e-15
3.3455e+02 1.5572e-15
3.3469e+02 1.5420e-15
3.3485e+02 1.5269e-15
3.3500e+02 1.5117e-15
3.3514e+02 1.4966e-15
3.3530e+02 1.4815e-15
3.3544e+02 1.4664e-15
3.3560e+02 1.4513e-15
3.3575e+02 1.4363e-15
3.3589e+02 1.4212e-15
3.3605e+02 1.4062e-15
3.3619e+02 1.3912e-15
3.3635e+02 1.3762e-15
3.3650e+02 1.3612e-15
3.3664e+02 1.3462e-15
3.3680e+02 1.3312e-15
3.3694e+02 1.3163e-15
3.3710e+02 1.3013e-15
3.3725e+02 1.2864e-15
3.3739e+02 1.2715e-15
3.3755e+02 1.2877e-15
3.3769e+02 1.3038e-15
3.3785e+02 1.3200e-15
3.3800e+02 1.3362e-15
3.3814e+02 1.3523e-15
3.3830e+02 1.3685e-15
3.3844e+02 1.3846e-15
3.3860e+02 1.4007e-15
3.3875e+02 1.4168e-15
3.3889e+02 1.4328e-15
3.3905e+02 1.4489e-15
3.3919e+02 1.4649e-15
3.3935e+02 1.4810e-15
3.3950e+02 1.4970e-15
3.3964e+02 1.5130e-15
3.3980e+02 1.5290e-15
3.3994e+02 1.5449e-15
3.4010e+02 1.5609e-15
3.4025e+02 1.5768e-15
3.4039e+02 1.5928e-15
3.4055e+02 1.5863e-15
3.4069e+02 1.5798e-15
3.4085e+02 1.5734e-15
3.4100e+02 1.5669e-15
3.4114e+02 1.5605e-15
3.4130e+02 1.5540e-15
3.4144e+02 1.5476e-15
3.4160e+02 1.5411e-15
3.4175e+02 1.5347e-15
3.4189e+02 1.5283e-15
3.4205e+02 1.5218e-15
3.4219e+02 1.5154e-15
3.4235e+02 1.5090e-15
3.4250e+02 1.5026e-15
3.4264e+02 1.4962e-15
3.4280e+02 1.4898e-15
3.4294e+02 1.4834e-15
3.4310e+02 1.4770e-15
3.4325e+02 1.4707e-15
3.4339e+02 1.4643e-15
3.4355e+02 1.4648e-15
3.4369e+02 1.4653e-15
3.4385e+02 1.4658e-15
3.4400e+02 1.4663e-15
3.4414e+02 1.4667e-15
3.4430e+02 1.4672e-15
3.4444e+02 1.4677e-15
3.4460e+02 1.4682e-15
3.4475e+02 1.4687e-15
3.4489e+02 1.4692e-15
3.4505e+02 1.4697e-15
3.4519e+02 1.4702e-15
3.4535e+02 1.4706e-15
3.4550e+02 1.4711e-15
3.4564e+02 1.4716e-15
3.4580e+02 1.4721e-15
3.4594e+02 1.4726e-15
3.4610e+02 1.4731e-15
3.4625e+02 1.4736e-15
3.4639e+02 1.4740e-15
3.4655e+02 1.4720e-15
3.4669e+02 1.4700e-15
3.4685e+02 1.4681e-15
3.4700e+02 1.4660e-15
3.4714e+02 1.4641e-15
3.4730e+02 1.4621e-15
3.4744e+02 1.4601e-15
3.4760e+02 1.4581e-15
3.4775e+02 1.4561e-15
3.4789e+02 1.4541e-15
3.4805e+02 1.4521e-15
3.4819e+02 1.4502e-15
3.4835e+02 1.4482e-15
3.4850e+02 1.4462e-15
3.4864e+02 1.4442e-15
3.4880e+02 1.4422e-15
3.4894e+02 1.4403e-15
3.4910e+02 1.4383e-15
3.4925e+02 1.4363e-15
3.4939e+02 1.4344e-15
3.4955e+02 1.4032e-15
3.4969e+02 1.3721e-15
3.4985e+02 1.3410e-15
3.5000e+02 1.3100e-15
3.5014e+02 1.2790e-15
3.5030e+02 1.2479e-15
3.5044e+02 1.2170e-15
3.5060e+02 1.1860e-15
3.5075e+02 1.1551e-15
3.5089e+02 1.1242e-15
3.5105e+02 1.0933e-15
3.5119e+02 1.0624e-15
3.5135e+02 1.0316e-15
3.5150e+02 1.0008e-15
3.5164e+02 9.7006e-16
3.5180e+02 9.3931e-16
3.5194e+02 9.0860e-16
3.5210e+02 8.7790e-16
3.5225e+02 8.4725e-16
3.5239e+02 8.1660e-16
3.5255e+02 8.4322e-16
3.5269e+02 8.6984e-16
3.5285e+02 8.9641e-16
3.5300e+02 9.2299e-16
3.5314e+02 9.4952e-16
3.5330e+02 9.7605e-16
3.5344e+02 1.0025e-15
3.5360e+02 1.0290e-15
3.5375e+02 1.0555e-15
3.5389e+02 1.0819e-15
3.5405e+02 1.1083e-15
3.5419e+02 1.1347e-15
3.5435e+02 1.1611e-15
3.5450e+02 1.1874e-15
3.5464e+02 1.2137e-15
3.5480e+02 1.2400e-15
3.5494e+02 1.2663e-15
3.5510e+02 1.2925e-15
3.5525e+02 1.3187e-15
3.5539e+02 1.3450e-15
3.5555e+02 1.3400e-15
3.5569e+02 1.3350e-15
3.5585e+02 1.3300e-15
3.5600e+02 1.3251e-15
3.5614e+02 1.3201e-15
3.5630e+02 1.3152e-15
3.5644e+02 1.3102e-15
3.5660e+02 1.3053e-15
3.5675e+02 1.3003e-15
3.5689e+02 1.2954e-15
3.5705e+02 1.2904e-15
3.5719e+02 1.2855e-15
3.5735e+02 1.2806e-15
3.5750e+02 1.2757e-15
3.5764e+02 1.2707e-15
3.5780e+02 1.2658e-15
3.5794e+02 1.2609e-15
3.5810e+02 1.2560e-15
3.5825e+02 1.2511e-15
3.5839e+02 1.2462e-15
3.5855e+02 1.2324e-15
3.5869e+02 1.2185e-15
3.5885e+02 1.2047e-15
3.5900e+02 1.1909e-15
3.5914e+02 1.1771e-15
3.5930e+02 1.1634e-15
3.5944e+02 1.1496e-15
3.5960e+02 1.1358e-15
3.5975e+02 1.1221e-15
3.5989e+02 1.1083e-15
3.6005e+02 1.0946e-15
3.6019e+02 1.0809e-15
3.6035e+02 1.0672e-15
3.6050e+02 1.0535e-15
3.6064e+02 1.0399e-15
3.6080e+02 1.0262e-15
3.6094e+02 1.0125e-15
3.6110e+02 9.9890e-16
3.6125e+02 9.8527e-16
3.6139e+02 9.7165e-16
3.6155e+02 9.6179e-16
3.6169e+02 9.5194e-16
3.6185e+02 9.4211e-16
3.6200e+02 9.3227e-16
3.6214e+02 9.2246e-16
3.6230e+02 9.1264e-16
3.6244e+02 9.0284e-16
3.6260e+02 8.9303e-16
3.6275e+02 8.8325e-16
3.6289e+02 8.7346e-16
3.6305e+02 8.6369e-16
3.6319e+02 8.5392e-16
3.6335e+02 8.4417e-16
3.6350e+02 8.3442e-16
3.6364e+02 8.2468e-16
3.6380e+02 8.1494e-16
3.6394e+02 8.0522e-16
3.6410e+02 7.9549e-16
3.6425e+02 7.8579e-16
3.6439e+02 7.7608e-16
3.6455e+02 7.9604e-16
3.6469e+02 8.1601e-16
3.6485e+02 8.3594e-16
3.6500e+02 8.5586e-16
3.6514e+02 8.7576e-16
3.6530e+02 8.9566e-16
3.6544e+02 9.1552e-16
3.6560e+02 9.3538e-16
3.6575e+02 9.5522e-16
3.6589e+02 9.7505e-16
3.6605e+02 9.9485e-16
3.6619e+02 1.0146e-15
3.6635e+02 1.0344e-15
3.6650e+02 1.0542e-15
3.6664e+02 1.0739e-15
3.6680e+02 1.0936e-15
3.6694e+02 1.1133e-15
3.6710e+02 1.1330e-15
3.6725e+02 1.1527e-15
3.6739e+02 1.1724e-15
3.6755e+02 1.1796e-15
3.6769e+02 1.1868e-15
3.6785e+02 1.1940e-15
3.6800e+02 1.2011e-15
3.6814e+02 1.2083e-15
3.6830e+02 1.2155e-15
3.6844e+02 1.2226e-15
3.6860e+02 1.2298e-15
3.6875e+02 1.2370e-15
3.6889e+02 1.2441e-15
3.6905e+02 1.2512e-15
3.6919e+02 1.2584e-15
3.6935e+02 1.2655e-15
3.6950e+02 1.2726e-15
3.6964e+02 1.2798e-15
3.6980e+02 1.2869e-15
3.6994e+02 1.2940e-15
3.7010e+02 1.3011e-15
3.7025e+02 1.3082e-15
3.7039e+02 1.3153e-15
3.7055e+02 1.3148e-15
3.7069e+02 1.3144e-15
3.7085e+02 1.3139e-15
3.7100e+02 1.3134e-15
3.7114e+02 1.3130e-15
3.7130e+02 1.3125e-15
3.7144e+02 1.3121e-15
3.7160e+02 1.3117e-15
3.7175e+02 1.3112e-15
3.7189e+02 1.3108e-15
3.7205e+02 1.3103e-15
3.7219e+02 1.3099e-15
3.7235e+02 1.3094e-15
3.7250e+02 1.3090e-15
3.7264e+02 1.3085e-15
3.7280e+02 1.3081e-15
3.7294e+02 1.3076e-15
3.7310e+02 1.3072e-15
3.7325e+02 1.3067e-15
3.7339e+02 1.3063e-15
3.7355e+02 1.3031e-15
3.7369e+02 1.2999e-15
3.7385e+02 1.2967e-15
3.7400e+02 1.2936e-15
3.7414e+02 1.2904e-15
3.7430e+02 1.2872e-15
3.7444e+02 1.2840e-15
3.7460e+02 1.2809e-15
3.7475e+02 1.2777e-15
3.7489e+02 1.2746e-15
3.7505e+02 1.2714e-15
3.7519e+02 1.2682e-15
3.7535e+02 1.2651e-15
3.7550e+02 1.2619e-15
3.7564e+02 1.2588e-15
3.7580e+02 1.2556e-15
3.7594e+02 1.2525e-15
3.7610e+02 1.2493e-15
3.7625e+02 1.2462e-15
3.7639e+02 1.2431e-15
3.7655e+02 1.2441e-15
3.7669e+02 1.2451e-15
3.7685e+02 1.2461e-15
3.7700e+02 1.2471e-15
3.7714e+02 1.2481e-15
3.7730e+02 1.2491e-15
3.7744e+02 1.2501e-15
3.7760e+02 1.2511e-15
3.7775e+02 1.2521e-15
3.7789e+02 1.2531e-15
3.7805e+02 1.2541e-15
3.7819e+02 1.2551e-15
3.7835e+02 1.2561e-15
3.7850e+02 1.2571e-15
3.7864e+02 1.2581e-15
3.7880e+02 1.2591e-15
3.7894e+02 1.2601e-15
3.7910e+02 1.2610e-15
3.7925e+02 1.2620e-15
3.7939e+02 1.2630e-15
3.7955e+02 1.2656e-15
3.7969e+02 1.2682e-15
3.7985e+02 1.2707e-15
3.8000e+02 1.2733e-15
3.8014e+02 1.2759e-15
3.8030e+02 1.2784e-15
3.8044e+02 1.2810e-15
3.8060e+02 1.2835e-15
3.8075e+02 1.2861e-15
3.8089e+02 1.2887e-15
3.8105e+02 1.2912e-15
3.8119e+02 1.2938e-15
3.8135e+02 1.2963e-15
3.8150e+02 1.2989e-15
3.8164e+02 1.3014e-15
3.8180e+02 1.3039e-15
3.8194e+02 1.3065e-15
3.8210e+02 1.3090e-15
3.8225e+02 1.3116e-15
3.8239e+02 1.3141e-15
3.8255e+02 1.3133e-15
3.8269e+02 1.3125e-15
3.8285e+02 1.3118e-15
3.8300e+02 1.3110e-15
3.8314e+02 1.3102e-15
3.8330e+02 1.3095e-15
3.8344e+02 1.3087e-15
3.8360e+02 1.3079e-15
3.8375e+02 1.3072e-15
3.8389e+02 1.3064e-15
3.8405e+02 1.3057e-15
3.8419e+02 1.3049e-15
3.8435e+02 1.3041e-15
3.8450e+02 1.3034e-15
3.8464e+02 1.3026e-15
3.8480e+02 1.3018e-15
3.8494e+02 1.3011e-15
3.8510e+02 1.3003e-15
3.8525e+02 1.2996e-15
3.8539e+02 1.2988e-15
3.8555e+02 1.2875e-15
3.8569e+02 1.2763e-15
3.8585e+02 1.2650e-15
3.8600e+02 1.2538e-15
3.8614e+02 1.2426e-15
3.8630e+02 1.2314e-15
3.8644e+02 1.2202e-15
3.8660e+02 1.2090e-15
3.8675e+02 1.1978e-15
3.8689e+02 1.1866e-15
3.8705e+02 1.1754e-15
3.8719e+02 1.1642e-15
3.8735e+02 1.1531e-15
3.8750e+02 1.1419e-15
3.8764e+02 1.1308e-15
3.8780e+02 1.1197e-15
3.8794e+02 1.1085e-15
3.8810e+02 1.0974e-15
3.8825e+02 1.0863e-15
3.8839e+02 1.0752e-15
3.8855e+02 1.0775e-15
3.8869e+02 1.0798e-15
3.8885e+02 1.0820e-15
3.8900e+02 1.0843e-15
3.8914e+02 1.0866e-15
3.8930e+02 1.0888e-15
3.8944e+02 1.0911e-15
3.8960e+02 1.0934e-15
3.8975e+02 1.0956e-15
3.8989e+02 1.0979e-15
3.9005e+02 1.1002e-15
3.9019e+02 1.1024e-15
3.9035e+02 1.1047e-15
3.9050e+02 1.1069e-15
3.9064e+02 1.1092e-15
3.9080e+02 1.1114e-15
3.9094e+02 1.1137e-15
3.9110e+02 1.1159e-15
3.9125e+02 1.1182e-15
3.9139e+02 1.1204e-15
3.9155e+02 1.1275e-15
3.9169e+02 1.1346e-15
3.9185e+02 1.1417e-15
3.9200e+02 1.1488e-15
3.9214e+02 1.1558e-15
3.9230e+02 1.1629e-15
3.9244e+02 1.1700e-15
3.9260e+02 1.1770e-15
3.9275e+02 1.1841e-15
3.9289e+02 1.1911e-15
3.9305e+02 1.1982e-15
3.9319e+02 1.2052e-15
3.9335e+02 1.2122e-15
3.9350e+02 1.2192e-15
3.9364e+02 1.2263e-15
3.9380e+02 1.2333e-15
3.9394e+02 1.2403e-15
3.9410e+02 1.2473e-15
3.9425e+02 1.2543e-15
3.9439e+02 1.2613e-15
3.9455e+02 1.2570e-15
3.9469e+02 1.2527e-15
3.9485e+02 1.2484e-15
3.9500e+02 1.2441e-15
3.9514e+02 1.2398e-15
3.9530e+02 1.2355e-15
3.9544e+02 1.2313e-15
3.9560e+02 1.2270e-15
3.9575e+02 1.2227e-15
3.9589e+02 1.2185e-15
3.9605e+02 1.2142e-15
3.9619e+02 1.2100e-15
3.9635e+02 1.2057e-15
3.9650e+02 1.2015e-15
3.9664e+02 1.1972e-15
3.9680e+02 1.1930e-15
3.9694e+02 1.1887e-15
3.9710e+02 1.1845e-15
3.9725e+02 1.1802e-15
3.9739e+02 1.1760e-15
3.9755e+02 1.1736e-15
3.9769e+02 1.1713e-15
3.9785e+02 1.1689e-15
3.9800e+02 1.1665e-15
3.9814e+02 1.1641e-15
3.9830e+02 1.1618e-15
3.9844e+02 1.1594e-15
3.9860e+02 1.1570e-15
3.9875e+02 1.1547e-15
3.9889e+02 1.1523e-15
3.9905e+02 1.1500e-15
3.9919e+02 1.1476e-15
3.9935e+02 1.1453e-15
3.9950e+02 1.1429e-15
3.9964e+02 1.1406e-15
3.9980e+02 1.1382e-15
3.9994e+02 1.1359e-15
4.0010e+02 1.1335e-15
4.0025e+02 1.1312e-15
4.0039e+02 1.1288e-15
4.0055e+02 1.1299e-15
4.0069e+02 1.1310e-15
4.0085e+02 1.1321e-15
4.0100e+02 1.1332e-15
4.0114e+02 1.1343e-15
4.0130e+02 1.1354e-15
4.0144e+02 1.1364e-15
4.0160e+02 1.1375e-15
4.0175e+02 1.1386e-15
4.0189e+02 1.1397e-15
4.0205e+02 1.1408e-15
4.0219e+02 1.1419e-15
4.0235e+02 1.1429e-15
4.0250e+02 1.1440e-15
4.0264e+02 1.1451e-15
4.0280e+02 1.1462e-15
4.0294e+02 1.1472e-15
4.0310e+02 1.1483e-15
4.0325e+02 1.1494e-15
4.0339e+02 1.1505e-15
4.0355e+02 1.1494e-15
4.0369e+02 1.1483e-15
4.0385e+02 1.1472e-15
4.0400e+02 1.1461e-15
4.0414e+02 1.1450e-15
4.0430e+02 1.1439e-15
4.0444e+02 1.1428e-15
4.0460e+02 1.1417e-15
4.0475e+02 1.1406e-15
4.0489e+02 1.1396e-15
4.0505e+02 1.1385e-15
4.0519e+02 1.1374e-15
4.0535e+02 1.1363e-15
4.0550e+02 1.1352e-15
4.0564e+02 1.1341e-15
4.0580e+02 1.1330e-15
4.0594e+02 1.1319e-15
4.0610e+02 1.1309e-15
4.0625e+02 1.1298e-15
4.0639e+02 1.1287e-15
4.0655e+02 1.1243e-15
4.0669e+02 1.1198e-15
4.0685e+02 1.1154e-15
4.0700e+02 1.1110e-15
4.0714e+02 1.1066e-15
4.0730e+02 1.1022e-15
4.0744e+02 1.0978e-15
4.0760e+02 1.0933e-15
4.0775e+02 1.0889e-15
4.0789e+02 1.0845e-15
4.0805e+02 1.0802e-15
4.0819e+02 1.0758e-15
4.0835e+02 1.0714e-15
4.0850e+02 1.0670e-15
4.0864e+02 1.0626e-15
4.0880e+02 1.0582e-15
4.0894e+02 1.0538e-15
4.0910e+02 1.0495e-15
4.0925e+02 1.0451e-15
4.0939e+02 1.0407e-15
4.0955e+02 1.0390e-15
4.0969e+02 1.0373e-15
4.0985e+02 1.0356e-15
4.1000e+02 1.0340e-15
4.1014e+02 1.0323e-15
4.1030e+02 1.0306e-15
4.1044e+02 1.0289e-15
4.1060e+02 1.0272e-15
4.1075e+02 1.0255e-15
4.1089e+02 1.0239e-15
4.1105e+02 1.0222e-15
4.1119e+02 1.0205e-15
4.1135e+02 1.0188e-15
4.1150e+02 1.0172e-15
4.1164e+02 1.0155e-15
4.1180e+02 1.0138e-15
4.1194e+02 1.0122e-15
4.1210e+02 1.0105e-15
4.1225e+02 1.0088e-15
4.1239e+02 1.0071e-15
4.1255e+02 1.0058e-15
4.1269e+02 1.0044e-15
4.1285e+02 1.0030e-15
4.1300e+02 1.0016e-15
4.1314e+02 1.0002e-15
4.1330e+02 9.9882e-16
4.1344e+02 9.9743e-16
4.1360e+02 9.9604e-16
4.1375e+02 9.9466e-16
4.1389e+02 9.9328e-16
4.1405e+02 9.9190e-16
4.1419e+02 9.9052e-16
4.1435e+02 9.8914e-16
4.1450e+02 9.8776e-16
4.1464e+02 9.8638e-16
4.1480e+02 9.8500e-16
4.1494e+02 9.8363e-16
4.1510e+02 9.8225e-16
4.1525e+02 9.8088e-16
4.1539e+02 9.7950e-16
4.1555e+02 9.6413e-16
4.1569e+02 9.4875e-16
4.1585e+02 9.3339e-16
4.1600e+02 9.1804e-16
4.1614e+02 9.0270e-16
4.1630e+02 8.8737e-16
4.1644e+02 8.7206e-16
4.1660e+02 8.5675e-16
4.1675e+02 8.4146e-16
4.1689e+02 8.2617e-16
4.1705e+02 8.1090e-16
4.1719e+02 7.9563e-16
4.1735e+02 7.8039e-16
4.1750e+02 7.6514e-16
4.1764e+02 7.4992e-16
4.1780e+02 7.3469e-16
4.1794e+02 7.1949e-16
4.1810e+02 7.0429e-16
4.1825e+02 6.8911e-16
4.1839e+02 6.7393e-16
4.1855e+02 6.7582e-16
4.1869e+02 6.7772e-16
4.1885e+02 6.7961e-16
4.1900e+02 6.8151e-16
4.1914e+02 6.8340e-16
4.1930e+02 6.8529e-16
4.1944e+02 6.8718e-16
4.1960e+02 6.8906e-16
4.1975e+02 6.9095e-16
4.1989e+02 6.9284e-16
4.2005e+02 6.9472e-16
4.2019e+02 6.9660e-16
4.2035e+02 6.9848e-16
4.2050e+02 7.0036e-16
4.2064e+02 7.0224e-16
4.2080e+02 7.0411e-16
4.2094e+02 7.0599e-16
4.2110e+02 7.0787e-16
4.2125e+02 7.0974e-16
4.2139e+02 7.1161e-16
4.2155e+02 7.1988e-16
4.2169e+02 7.2815e-16
4.2185e+02 7.3640e-16
4.2200e+02 7.4466e-16
4.2214e+02 7.5291e-16
4.2230e+02 7.6115e-16
4.2244e+02 7.6939e-16
4.2260e+02 7.7762e-16
4.2275e+02 7.8584e-16
4.2289e+02 7.9407e-16
4.2305e+02 8.0228e-16
4.2319e+02 8.1049e-16
4.2335e+02 8.1869e-16
4.2350e+02 8.2689e-16
4.2364e+02 8.3508e-16
4.2380e+02 8.4326e-16
4.2394e+02 8.5144e-16
4.2410e+02 8.5962e-16
4.2425e+02 8.6778e-16
4.2439e+02 8.7594e-16
4.2455e+02 8.7426e-16
4.2469e+02 8.7257e-16
4.2485e+02 8.7088e-16
4.2500e+02 8.6920e-16
4.2514e+02 8.6751e-16
4.2530e+02 8.6583e-16
4.2544e+02 8.6415e-16
4.2560e+02 8.6247e-16
4.2575e+02 8.6079e-16
4.2589e+02 8.5911e-16
4.2605e+02 8.5744e-16
4.2619e+02 8.5576e-16
4.2635e+02 8.5409e-16
4.2650e+02 8.5241e-16
4.2664e+02 8.5074e-16
4.2680e+02 8.4907e-16
4.2694e+02 8.4740e-16
4.2710e+02 8.4573e-16
4.2725e+02 8.4407e-16
4.2739e+02 8.4240e-16
4.2755e+02 8.4420e-16
4.2769e+02 8.4600e-16
4.2785e+02 8.4780e-16
4.2800e+02 8.4960e-16
4.2814e+02 8.5139e-16
4.2830e+02 8.5319e-16
4.2844e+02 8.5498e-16
4.2860e+02 8.5677e-16
4.2875e+02 8.5856e-16
4.2889e+02 8.6035e-16
4.2905e+02 8.6214e-16
4.2919e+02 8.6393e-16
4.2935e+02 8.6571e-16
4.2950e+02 8.6750e-16
4.2964e+02 8.6928e-16
4.2980e+02 8.7107e-16
4.2994e+02 8.7285e-16
4.3010e+02 8.7463e-16
4.3025e+02 8.7641e-16
4.3039e+02 8.7818e-16
4.3055e+02 8.7909e-16
4.3069e+02 8.7999e-16
4.3085e+02 8.8090e-16
4.3100e+02 8.8180e-16
4.3114e+02 8.8271e-16
4.3130e+02 8.8361e-16
4.3144e+02 8.8451e-16
4.3160e+02 8.8541e-16
4.3175e+02 8.8631e-16
4.3189e+02 8.8721e-16
4.3205e+02 8.8811e-16
4.3219e+02 8.8901e-16
4.3235e+02 8.8991e-16
4.3250e+02 8.9081e-16
4.3264e+02 8.8907e-16
4.3280e+02 8.8733e-16
4.3294e+02 8.8559e-16
4.3310e+02 8.8385e-16
4.3325e+02 8.8212e-16
4.3339e+02 8.8038e-16
4.3355e+02 8.7865e-16
4.3369e+02 8.7691e-16
4.3385e+02 8.7518e-16
4.3400e+02 8.7345e-16
4.3414e+02 8.7155e-16
4.3430e+02 8.6964e-16
4.3444e+02 8.6774e-16
