# lam(nm) Flux (erg/s/cm2/Ang)
3.0439e+02 9.0407e-16
3.0455e+02 8.6807e-16
3.0469e+02 8.3207e-16
3.0485e+02 7.9613e-16
3.0500e+02 7.6020e-16
3.0514e+02 7.2434e-16
3.0530e+02 6.8848e-16
3.0544e+02 6.5269e-16
3.0560e+02 6.1689e-16
3.0575e+02 5.8118e-16
3.0589e+02 5.4546e-16
3.0605e+02 5.0980e-16
3.0619e+02 4.7415e-16
3.0635e+02 4.3857e-16
3.0650e+02 4.0299e-16
3.0664e+02 3.6748e-16
3.0680e+02 3.3197e-16
3.0694e+02 2.9653e-16
3.0710e+02 2.6108e-16
3.0725e+02 2.2571e-16
3.0739e+02 1.9034e-16
3.0755e+02 2.0769e-16
3.0769e+02 2.2504e-16
3.0785e+02 2.4236e-16
3.0800e+02 2.5967e-16
3.0814e+02 2.7696e-16
3.0830e+02 2.9424e-16
3.0844e+02 3.1149e-16
3.0860e+02 3.2874e-16
3.0875e+02 3.4596e-16
3.0889e+02 3.6317e-16
3.0905e+02 3.8036e-16
3.0919e+02 3.9754e-16
3.0935e+02 4.1469e-16
3.0950e+02 4.3184e-16
3.0964e+02 4.4896e-16
3.0980e+02 4.6607e-16
3.0994e+02 4.8316e-16
3.1010e+02 5.0024e-16
3.1025e+02 5.1729e-16
3.1039e+02 5.3434e-16
3.1055e+02 5.6895e-16
3.1069e+02 6.0356e-16
3.1085e+02 6.3810e-16
3.1100e+02 6.7265e-16
3.1114e+02 7.0713e-16
3.1130e+02 7.4160e-16
3.1144e+02 7.7601e-16
3.1160e+02 8.1042e-16
3.1175e+02 8.4477e-16
3.1189e+02 8.7911e-16
3.1205e+02 9.1339e-16
3.1219e+02 9.4767e-16
3.1235e+02 9.8188e-16
3.1250e+02 1.0161e-15
3.1264e+02 1.0502e-15
3.1280e+02 1.0844e-15
3.1294e+02 1.1185e-15
3.1310e+02 1.1525e-15
3.1325e+02 1.1866e-15
3.1339e+02 1.2206e-15
3.1355e+02 1.2191e-15
3.1369e+02 1.2176e-15
3.1385e+02 1.2161e-15
3.1400e+02 1.2146e-15
3.1414e+02 1.2131e-15
3.1430e+02 1.2116e-15
3.1444e+02 1.2101e-15
3.1460e+02 1.2086e-15
3.1475e+02 1.2071e-15
3.1489e+02 1.2056e-15
3.1505e+02 1.2041e-15
3.1519e+02 1.2026e-15
3.1535e+02 1.2012e-15
3.1550e+02 1.1997e-15
3.1564e+02 1.1982e-15
3.1580e+02 1.1967e-15
3.1594e+02 1.1952e-15
3.1610e+02 1.1938e-15
3.1625e+02 1.1923e-15
3.1639e+02 1.1908e-15
3.1655e+02 1.1770e-15
3.1669e+02 1.1632e-15
3.1685e+02 1.1494e-15
3.1700e+02 1.1356e-15
3.1714e+02 1.1218e-15
3.1730e+02 1.1080e-15
3.1744e+02 1.0943e-15
3.1760e+02 1.0806e-15
3.1775e+02 1.0668e-15
3.1789e+02 1.0531e-15
3.1805e+02 1.0394e-15
3.1819e+02 1.0257e-15
3.1835e+02 1.0121e-15
3.1850e+02 9.9842e-16
3.1864e+02 9.8478e-16
3.1880e+02 9.7114e-16
3.1894e+02 9.5753e-16
3.1910e+02 9.4392e-16
3.1925e+02 9.3033e-16
3.1939e+02 9.1675e-16
3.1955e+02 9.2664e-16
3.1969e+02 9.3654e-16
3.1985e+02 9.4641e-16
3.2000e+02 9.5629e-16
3.2014e+02 9.6615e-16
3.2030e+02 9.7600e-16
3.2044e+02 9.8584e-16
3.2060e+02 9.9569e-16
3.2075e+02 1.0055e-15
3.2089e+02 1.0153e-15
3.2105e+02 1.0251e-15
3.2119e+02 1.0349e-15
3.2135e+02 1.0447e-15
3.2150e+02 1.0545e-15
3.2164e+02 1.0643e-15
3.2180e+02 1.0740e-15
3.2194e+02 1.0838e-15
3.2210e+02 1.0935e-15
3.2225e+02 1.1033e-15
3.2239e+02 1.1130e-15
3.2255e+02 1.0981e-15
3.2269e+02 1.0831e-15
3.2285e+02 1.0682e-15
3.2300e+02 1.0533e-15
3.2314e+02 1.0384e-15
3.2330e+02 1.0235e-15
3.2344e+02 1.0087e-15
3.2360e+02 9.9383e-16
3.2375e+02 9.7901e-16
3.2389e+02 9.6418e-16
3.2405e+02 9.4938e-16
3.2419e+02 9.3458e-16
3.2435e+02 9.1981e-16
3.2450e+02 9.0504e-16
3.2464e+02 8.9030e-16
3.2480e+02 8.7555e-16
3.2494e+02 8.6083e-16
3.2510e+02 8.4612e-16
3.2525e+02 8.3143e-16
3.2539e+02 8.1674e-16
3.2555e+02 8.3272e-16
3.2569e+02 8.4871e-16
3.2585e+02 8.6467e-16
3.2600e+02 8.8063e-16
3.2614e+02 8.9656e-16
3.2630e+02 9.1249e-16
3.2644e+02 9.2838e-16
3.2660e+02 9.4428e-16
3.2675e+02 9.6015e-16
3.2689e+02 9.7602e-16
3.2705e+02 9.9186e-16
3.2719e+02 1.0077e-15
3.2735e+02 1.0235e-15
3.2750e+02 1.0393e-15
3.2764e+02 1.0551e-15
3.2780e+02 1.0709e-15
3.2794e+02 1.0866e-15
3.2810e+02 1.1024e-15
3.2825e+02 1.1181e-15
3.2839e+02 1.1338e-15
3.2855e+02 1.1279e-15
3.2869e+02 1.1220e-15
3.2885e+02 1.1160e-15
3.2900e+02 1.1101e-15
3.2914e+02 1.1042e-15
3.2930e+02 1.0982e-15
3.2944e+02 1.0923e-15
3.2960e+02 1.0864e-15
3.2975e+02 1.0805e-15
3.2989e+02 1.0746e-15
3.3005e+02 1.0687e-15
3.3019e+02 1.0628e-15
3.3035e+02 1.0569e-15
3.3050e+02 1.0510e-15
3.3064e+02 1.0452e-15
3.3080e+02 1.0393e-15
3.3094e+02 1.0334e-15
3.3110e+02 1.0276e-15
3.3125e+02 1.0217e-15
3.3139e+02 1.0159e-15
3.3155e+02 1.0116e-15
3.3169e+02 1.0073e-15
3.3185e+02 1.0030e-15
3.3200e+02 9.9873e-16
3.3214e+02 9.9446e-16
3.3230e+02 9.9018e-16
3.3244e+02 9.8592e-16
3.3260e+02 9.8165e-16
3.3275e+02 9.7739e-16
3.3289e+02 9.7313e-16
3.3305e+02 9.6888e-16
3.3319e+02 9.6463e-16
3.3335e+02 9.6038e-16
3.3350e+02 9.5614e-16
3.3364e+02 9.5190e-16
3.3380e+02 9.4767e-16
3.3394e+02 9.4344e-16
3.3410e+02 9.3921e-16
3.3425e+02 9.3499e-16
3.3439e+02 9.3077e-16
3.3455e+02 9.2665e-16
3.3469e+02 9.2252e-16
3.3485e+02 9.1841e-16
3.3500e+02 9.1429e-16
3.3514e+02 9.1018e-16
3.3530e+02 9.0607e-16
3.3544e+02 9.0197e-16
3.3560e+02 8.9787e-16
3.3575e+02 8.9378e-16
3.3589e+02 8.8968e-16
3.3605e+02 8.8560e-16
3.3619e+02 8.8151e-16
3.3635e+02 8.7743e-16
3.3650e+02 8.7336e-16
3.3664e+02 8.6928e-16
3.3680e+02 8.6521e-16
3.3694e+02 8.6115e-16
3.3710e+02 8.5708e-16
3.3725e+02 8.5302e-16
3.3739e+02 8.4897e-16
3.3755e+02 8.6109e-16
3.3769e+02 8.7321e-16
3.3785e+02 8.8531e-16
3.3800e+02 8.9742e-16
3.3814e+02 9.0949e-16
3.3830e+02 9.2157e-16
3.3844e+02 9.3363e-16
3.3860e+02 9.4569e-16
3.3875e+02 9.5773e-16
3.3889e+02 9.6976e-16
3.3905e+02 9.8178e-16
3.3919e+02 9.9380e-16
3.3935e+02 1.0058e-15
3.3950e+02 1.0178e-15
3.3964e+02 1.0298e-15
3.3980e+02 1.0417e-15
3.3994e+02 1.0537e-15
3.4010e+02 1.0656e-15
3.4025e+02 1.0776e-15
3.4039e+02 1.0895e-15
3.4055e+02 1.0828e-15
3.4069e+02 1.0761e-15
3.4085e+02 1.0693e-15
3.4100e+02 1.0626e-15
3.4114e+02 1.0559e-15
3.4130e+02 1.0492e-15
3.4144e+02 1.0426e-15
3.4160e+02 1.0359e-15
3.4175e+02 1.0292e-15
3.4189e+02 1.0225e-15
3.4205e+02 1.0159e-15
3.4219e+02 1.0092e-15
3.4235e+02 1.0025e-15
3.4250e+02 9.9590e-16
3.4264e+02 9.8926e-16
3.4280e+02 9.8263e-16
3.4294e+02 9.7600e-16
3.4310e+02 9.6937e-16
3.4325e+02 9.6276e-16
3.4339e+02 9.5614e-16
3.4355e+02 9.5912e-16
3.4369e+02 9.6209e-16
3.4385e+02 9.6506e-16
3.4400e+02 9.6804e-16
3.4414e+02 9.7101e-16
3.4430e+02 9.7398e-16
3.4444e+02 9.7694e-16
3.4460e+02 9.7990e-16
3.4475e+02 9.8285e-16
3.4489e+02 9.8581e-16
3.4505e+02 9.8876e-16
3.4519e+02 9.9171e-16
3.4535e+02 9.9466e-16
3.4550e+02 9.9760e-16
3.4564e+02 1.0005e-15
3.4580e+02 1.0035e-15
3.4594e+02 1.0064e-15
3.4610e+02 1.0094e-15
3.4625e+02 1.0123e-15
3.4639e+02 1.0152e-15
3.4655e+02 1.0174e-15
3.4669e+02 1.0195e-15
3.4685e+02 1.0217e-15
3.4700e+02 1.0239e-15
3.4714e+02 1.0260e-15
3.4730e+02 1.0282e-15
3.4744e+02 1.0304e-15
3.4760e+02 1.0325e-15
3.4775e+02 1.0347e-15
3.4789e+02 1.0368e-15
3.4805e+02 1.0390e-15
3.4819e+02 1.0411e-15
3.4835e+02 1.0433e-15
3.4850e+02 1.0454e-15
3.4864e+02 1.0475e-15
3.4880e+02 1.0497e-15
3.4894e+02 1.0518e-15
3.4910e+02 1.0540e-15
3.4925e+02 1.0561e-15
3.4939e+02 1.0582e-15
3.4955e+02 1.0428e-15
3.4969e+02 1.0274e-15
3.4985e+02 1.0121e-15
3.5000e+02 9.9671e-16
3.5014e+02 9.8137e-16
3.5030e+02 9.6603e-16
3.5044e+02 9.5071e-16
3.5060e+02 9.3539e-16
3.5075e+02 9.2010e-16
3.5089e+02 9.0481e-16
3.5105e+02 8.8954e-16
3.5119e+02 8.7428e-16
3.5135e+02 8.5904e-16
3.5150e+02 8.4380e-16
3.5164e+02 8.2859e-16
3.5180e+02 8.1338e-16
3.5194e+02 7.9819e-16
3.5210e+02 7.8300e-16
3.5225e+02 7.6784e-16
3.5239e+02 7.5268e-16
3.5255e+02 7.6859e-16
3.5269e+02 7.8450e-16
3.5285e+02 8.0038e-16
3.5300e+02 8.1627e-16
3.5314e+02 8.3212e-16
3.5330e+02 8.4798e-16
3.5344e+02 8.6381e-16
3.5360e+02 8.7964e-16
3.5375e+02 8.9544e-16
3.5389e+02 9.1124e-16
3.5405e+02 9.2702e-16
3.5419e+02 9.4279e-16
3.5435e+02 9.5854e-16
3.5450e+02 9.7429e-16
3.5464e+02 9.9001e-16
3.5480e+02 1.0057e-15
3.5494e+02 1.0214e-15
3.5510e+02 1.0371e-15
3.5525e+02 1.0528e-15
3.5539e+02 1.0685e-15
3.5555e+02 1.0508e-15
3.5569e+02 1.0332e-15
3.5585e+02 1.0155e-15
3.5600e+02 9.9789e-16
3.5614e+02 9.8029e-16
3.5630e+02 9.6269e-16
3.5644e+02 9.4512e-16
3.5660e+02 9.2755e-16
3.5675e+02 9.1001e-16
3.5689e+02 8.9247e-16
3.5705e+02 8.7496e-16
3.5719e+02 8.5745e-16
3.5735e+02 8.3997e-16
3.5750e+02 8.2248e-16
3.5764e+02 8.0503e-16
3.5780e+02 7.8758e-16
3.5794e+02 7.7016e-16
3.5810e+02 7.5273e-16
3.5825e+02 7.3534e-16
3.5839e+02 7.1795e-16
3.5855e+02 7.0504e-16
3.5869e+02 6.9214e-16
3.5885e+02 6.7926e-16
3.5900e+02 6.6638e-16
3.5914e+02 6.5352e-16
3.5930e+02 6.4066e-16
3.5944e+02 6.2782e-16
3.5960e+02 6.1498e-16
3.5975e+02 6.0217e-16
3.5989e+02 5.8935e-16
3.6005e+02 5.7655e-16
3.6019e+02 5.6376e-16
3.6035e+02 5.5098e-16
3.6050e+02 5.3821e-16
3.6064e+02 5.2546e-16
3.6080e+02 5.1271e-16
3.6094e+02 4.9997e-16
3.6110e+02 4.8724e-16
3.6125e+02 4.7453e-16
3.6139e+02 4.6182e-16
3.6155e+02 4.4857e-16
3.6169e+02 4.3531e-16
3.6185e+02 4.2208e-16
3.6200e+02 4.0885e-16
3.6214e+02 3.9563e-16
3.6230e+02 3.8242e-16
3.6244e+02 3.6924e-16
3.6260e+02 3.5605e-16
3.6275e+02 3.4288e-16
3.6289e+02 3.2971e-16
3.6305e+02 3.1657e-16
3.6319e+02 3.0342e-16
3.6335e+02 2.9030e-16
3.6350e+02 2.7717e-16
3.6364e+02 2.6407e-16
3.6380e+02 2.5097e-16
3.6394e+02 2.3789e-16
3.6410e+02 2.2481e-16
3.6425e+02 2.1175e-16
3.6439e+02 1.9869e-16
3.6455e+02 2.2227e-16
3.6469e+02 2.4586e-16
3.6485e+02 2.6941e-16
3.6500e+02 2.9295e-16
3.6514e+02 3.1646e-16
3.6530e+02 3.3997e-16
3.6544e+02 3.6344e-16
3.6560e+02 3.8691e-16
3.6575e+02 4.1034e-16
3.6589e+02 4.3378e-16
3.6605e+02 4.5717e-16
3.6619e+02 4.8056e-16
3.6635e+02 5.0392e-16
3.6650e+02 5.2727e-16
3.6664e+02 5.5059e-16
3.6680e+02 5.7390e-16
3.6694e+02 5.9718e-16
3.6710e+02 6.2046e-16
3.6725e+02 6.4370e-16
3.6739e+02 6.6694e-16
3.6755e+02 6.8557e-16
3.6769e+02 7.0420e-16
3.6785e+02 7.2280e-16
3.6800e+02 7.4139e-16
3.6814e+02 7.5996e-16
3.6830e+02 7.7853e-16
3.6844e+02 7.9706e-16
3.6860e+02 8.1560e-16
3.6875e+02 8.3411e-16
3.6889e+02 8.5262e-16
3.6905e+02 8.7109e-16
3.6919e+02 8.8957e-16
3.6935e+02 9.0802e-16
3.6950e+02 9.2647e-16
3.6964e+02 9.4488e-16
3.6980e+02 9.6330e-16
3.6994e+02 9.8169e-16
3.7010e+02 1.0001e-15
3.7025e+02 1.0184e-15
3.7039e+02 1.0368e-15
3.7055e+02 1.0394e-15
3.7069e+02 1.0419e-15
3.7085e+02 1.0445e-15
3.7100e+02 1.0471e-15
3.7114e+02 1.0496e-15
3.7130e+02 1.0522e-15
3.7144e+02 1.0547e-15
3.7160e+02 1.0573e-15
3.7175e+02 1.0599e-15
3.7189e+02 1.0624e-15
3.7205e+02 1.0650e-15
3.7219e+02 1.0675e-15
3.7235e+02 1.0700e-15
3.7250e+02 1.0726e-15
3.7264e+02 1.0751e-15
3.7280e+02 1.0777e-15
3.7294e+02 1.0802e-15
3.7310e+02 1.0827e-15
3.7325e+02 1.0853e-15
3.7339e+02 1.0878e-15
3.7355e+02 1.0843e-15
3.7369e+02 1.0807e-15
3.7385e+02 1.0771e-15
3.7400e+02 1.0736e-15
3.7414e+02 1.0700e-15
3.7430e+02 1.0665e-15
3.7444e+02 1.0629e-15
3.7460e+02 1.0594e-15
3.7475e+02 1.0558e-15
3.7489e+02 1.0523e-15
3.7505e+02 1.0488e-15
3.7519e+02 1.0452e-15
3.7535e+02 1.0417e-15
3.7550e+02 1.0382e-15
3.7564e+02 1.0346e-15
3.7580e+02 1.0311e-15
3.7594e+02 1.0276e-15
3.7610e+02 1.0241e-15
3.7625e+02 1.0206e-15
3.7639e+02 1.0170e-15
3.7655e+02 1.0092e-15
3.7669e+02 1.0014e-15
3.7685e+02 9.9357e-16
3.7700e+02 9.8576e-16
3.7714e+02 9.7795e-16
3.7730e+02 9.7015e-16
3.7744e+02 9.6236e-16
3.7760e+02 9.5457e-16
3.7775e+02 9.4679e-16
3.7789e+02 9.3901e-16
3.7805e+02 9.3125e-16
3.7819e+02 9.2348e-16
3.7835e+02 9.1573e-16
3.7850e+02 9.0797e-16
3.7864e+02 9.0023e-16
3.7880e+02 8.9249e-16
3.7894e+02 8.8476e-16
3.7910e+02 8.7703e-16
3.7925e+02 8.6932e-16
3.7939e+02 8.6160e-16
3.7955e+02 8.7085e-16
3.7969e+02 8.8010e-16
3.7985e+02 8.8934e-16
3.8000e+02 8.9858e-16
3.8014e+02 9.0780e-16
3.8030e+02 9.1702e-16
3.8044e+02 9.2623e-16
3.8060e+02 9.3543e-16
3.8075e+02 9.4463e-16
3.8089e+02 9.5382e-16
3.8105e+02 9.6300e-16
3.8119e+02 9.7218e-16
3.8135e+02 9.8134e-16
3.8150e+02 9.9050e-16
3.8164e+02 9.9965e-16
3.8180e+02 1.0088e-15
3.8194e+02 1.0179e-15
3.8210e+02 1.0271e-15
3.8225e+02 1.0362e-15
3.8239e+02 1.0453e-15
3.8255e+02 1.0458e-15
3.8269e+02 1.0463e-15
3.8285e+02 1.0468e-15
3.8300e+02 1.0473e-15
3.8314e+02 1.0478e-15
3.8330e+02 1.0483e-15
3.8344e+02 1.0488e-15
3.8360e+02 1.0493e-15
3.8375e+02 1.0497e-15
3.8389e+02 1.0502e-15
3.8405e+02 1.0507e-15
3.8419e+02 1.0512e-15
3.8435e+02 1.0517e-15
3.8450e+02 1.0522e-15
3.8464e+02 1.0527e-15
3.8480e+02 1.0532e-15
3.8494e+02 1.0536e-15
3.8510e+02 1.0541e-15
3.8525e+02 1.0546e-15
3.8539e+02 1.0551e-15
3.8555e+02 1.0418e-15
3.8569e+02 1.0285e-15
3.8585e+02 1.0151e-15
3.8600e+02 1.0018e-15
3.8614e+02 9.8856e-16
3.8630e+02 9.7527e-16
3.8644e+02 9.6200e-16
3.8660e+02 9.4874e-16
3.8675e+02 9.3550e-16
3.8689e+02 9.2225e-16
3.8705e+02 9.0903e-16
3.8719e+02 8.9580e-16
3.8735e+02 8.8260e-16
3.8750e+02 8.6940e-16
3.8764e+02 8.5621e-16
3.8780e+02 8.4303e-16
3.8794e+02 8.2987e-16
3.8810e+02 8.1671e-16
3.8825e+02 8.0356e-16
3.8839e+02 7.9042e-16
3.8855e+02 7.9179e-16
3.8869e+02 7.9315e-16
3.8885e+02 7.9451e-16
3.8900e+02 7.9587e-16
3.8914e+02 7.9722e-16
3.8930e+02 7.9858e-16
3.8944e+02 7.9993e-16
3.8960e+02 8.0129e-16
3.8975e+02 8.0264e-16
3.8989e+02 8.0400e-16
3.9005e+02 8.0535e-16
3.9019e+02 8.0670e-16
3.9035e+02 8.0805e-16
3.9050e+02 8.0939e-16
3.9064e+02 8.1074e-16
3.9080e+02 8.1209e-16
3.9094e+02 8.1343e-16
3.9110e+02 8.1478e-16
3.9125e+02 8.1612e-16
3.9139e+02 8.1747e-16
3.9155e+02 8.2673e-16
3.9169e+02 8.3600e-16
3.9185e+02 8.4526e-16
3.9200e+02 8.5451e-16
3.9214e+02 8.6375e-16
3.9230e+02 8.7299e-16
3.9244e+02 8.8222e-16
3.9260e+02 8.9145e-16
3.9275e+02 9.0066e-16
3.9289e+02 9.0988e-16
3.9305e+02 9.1907e-16
3.9319e+02 9.2827e-16
3.9335e+02 9.3746e-16
3.9350e+02 9.4665e-16
3.9364e+02 9.5582e-16
3.9380e+02 9.6499e-16
3.9394e+02 9.7414e-16
3.9410e+02 9.8330e-16
3.9425e+02 9.9244e-16
3.9439e+02 1.0016e-15
3.9455e+02 9.9748e-16
3.9469e+02 9.9339e-16
3.9485e+02 9.8930e-16
3.9500e+02 9.8521e-16
3.9514e+02 9.8112e-16
3.9530e+02 9.7703e-16
3.9544e+02 9.7295e-16
3.9560e+02 9.6887e-16
3.9575e+02 9.6480e-16
3.9589e+02 9.6072e-16
3.9605e+02 9.5666e-16
3.9619e+02 9.5259e-16
3.9635e+02 9.4853e-16
3.9650e+02 9.4447e-16
3.9664e+02 9.4041e-16
3.9680e+02 9.3636e-16
3.9694e+02 9.3231e-16
3.9710e+02 9.2826e-16
3.9725e+02 9.2422e-16
3.9739e+02 9.2017e-16
3.9755e+02 9.1368e-16
3.9769e+02 9.0718e-16
3.9785e+02 9.0070e-16
3.9800e+02 8.9422e-16
3.9814e+02 8.8775e-16
3.9830e+02 8.8127e-16
3.9844e+02 8.7481e-16
3.9860e+02 8.6834e-16
3.9875e+02 8.6189e-16
3.9889e+02 8.5543e-16
3.9905e+02 8.4899e-16
3.9919e+02 8.4254e-16
3.9935e+02 8.3611e-16
3.9950e+02 8.2967e-16
3.9964e+02 8.2325e-16
3.9980e+02 8.1682e-16
3.9994e+02 8.1041e-16
4.0010e+02 8.0399e-16
4.0025e+02 7.9759e-16
4.0039e+02 7.9118e-16
4.0055e+02 7.9902e-16
4.0069e+02 8.0686e-16
4.0085e+02 8.1469e-16
4.0100e+02 8.2252e-16
4.0114e+02 8.3034e-16
4.0130e+02 8.3816e-16
4.0144e+02 8.4596e-16
4.0160e+02 8.5377e-16
4.0175e+02 8.6156e-16
4.0189e+02 8.6935e-16
4.0205e+02 8.7714e-16
4.0219e+02 8.8492e-16
4.0235e+02 8.9269e-16
4.0250e+02 9.0046e-16
4.0264e+02 9.0822e-16
4.0280e+02 9.1598e-16
4.0294e+02 9.2372e-16
4.0310e+02 9.3147e-16
4.0325e+02 9.3921e-16
4.0339e+02 9.4694e-16
4.0355e+02 9.4502e-16
4.0369e+02 9.4309e-16
4.0385e+02 9.4117e-16
4.0400e+02 9.3924e-16
4.0414e+02 9.3732e-16
4.0430e+02 9.3541e-16
4.0444e+02 9.3349e-16
4.0460e+02 9.3157e-16
4.0475e+02 9.2965e-16
4.0489e+02 9.2774e-16
4.0505e+02 9.2583e-16
4.0519e+02 9.2391e-16
4.0535e+02 9.2201e-16
4.0550e+02 9.2010e-16
4.0564e+02 9.1819e-16
4.0580e+02 9.1628e-16
4.0594e+02 9.1438e-16
4.0610e+02 9.1248e-16
4.0625e+02 9.1058e-16
4.0639e+02 9.0867e-16
4.0655e+02 9.0334e-16
4.0669e+02 8.9801e-16
4.0685e+02 8.9269e-16
4.0700e+02 8.8736e-16
4.0714e+02 8.8205e-16
4.0730e+02 8.7673e-16
4.0744e+02 8.7142e-16
4.0760e+02 8.6612e-16
4.0775e+02 8.6082e-16
4.0789e+02 8.5552e-16
4.0805e+02 8.5023e-16
4.0819e+02 8.4493e-16
4.0835e+02 8.3965e-16
4.0850e+02 8.3437e-16
4.0864e+02 8.2909e-16
4.0880e+02 8.2381e-16
4.0894e+02 8.1854e-16
4.0910e+02 8.1327e-16
4.0925e+02 8.0801e-16
4.0939e+02 8.0275e-16
4.0955e+02 8.0373e-16
4.0969e+02 8.0470e-16
4.0985e+02 8.0568e-16
4.1000e+02 8.0665e-16
4.1014e+02 8.0763e-16
4.1030e+02 8.0860e-16
4.1044e+02 8.0957e-16
4.1060e+02 8.1054e-16
4.1075e+02 8.1151e-16
4.1089e+02 8.1248e-16
4.1105e+02 8.1345e-16
4.1119e+02 8.1442e-16
4.1135e+02 8.1539e-16
4.1150e+02 8.1636e-16
4.1164e+02 8.1733e-16
4.1180e+02 8.1829e-16
4.1194e+02 8.1926e-16
4.1210e+02 8.2022e-16
4.1225e+02 8.2118e-16
4.1239e+02 8.2215e-16
4.1255e+02 8.2285e-16
4.1269e+02 8.2355e-16
4.1285e+02 8.2425e-16
4.1300e+02 8.2495e-16
4.1314e+02 8.2565e-16
4.1330e+02 8.2634e-16
4.1344e+02 8.2704e-16
4.1360e+02 8.2774e-16
4.1375e+02 8.2844e-16
4.1389e+02 8.2913e-16
4.1405e+02 8.2983e-16
4.1419e+02 8.3053e-16
4.1435e+02 8.3122e-16
4.1450e+02 8.3191e-16
4.1464e+02 8.3261e-16
4.1480e+02 8.3330e-16
4.1494e+02 8.3399e-16
4.1510e+02 8.3469e-16
4.1525e+02 8.3538e-16
4.1539e+02 8.3607e-16
4.1555e+02 8.3044e-16
4.1569e+02 8.2481e-16
4.1585e+02 8.1920e-16
4.1600e+02 8.1358e-16
4.1614e+02 8.0796e-16
4.1630e+02 8.0235e-16
4.1644e+02 7.9675e-16
4.1660e+02 7.9114e-16
4.1675e+02 7.8555e-16
4.1689e+02 7.7995e-16
4.1705e+02 7.7437e-16
4.1719e+02 7.6878e-16
4.1735e+02 7.6320e-16
4.1750e+02 7.5762e-16
4.1764e+02 7.5205e-16
4.1780e+02 7.4648e-16
4.1794e+02 7.4092e-16
4.1810e+02 7.3535e-16
4.1825e+02 7.2980e-16
4.1839e+02 7.2424e-16
4.1855e+02 7.2610e-16
4.1869e+02 7.2795e-16
4.1885e+02 7.2980e-16
4.1900e+02 7.3166e-16
4.1914e+02 7.3351e-16
4.1930e+02 7.3536e-16
4.1944e+02 7.3720e-16
4.1960e+02 7.3905e-16
4.1975e+02 7.4089e-16
4.1989e+02 7.4274e-16
4.2005e+02 7.4458e-16
4.2019e+02 7.4642e-16
4.2035e+02 7.4826e-16
4.2050e+02 7.5010e-16
4.2064e+02 7.5194e-16
4.2080e+02 7.5377e-16
4.2094e+02 7.5561e-16
4.2110e+02 7.5744e-16
4.2125e+02 7.5927e-16
4.2139e+02 7.6110e-16
4.2155e+02 7.6068e-16
4.2169e+02 7.6025e-16
4.2185e+02 7.5983e-16
4.2200e+02 7.5940e-16
4.2214e+02 7.5897e-16
4.2230e+02 7.5855e-16
4.2244e+02 7.5812e-16
4.2260e+02 7.5770e-16
4.2275e+02 7.5728e-16
4.2289e+02 7.5685e-16
4.2305e+02 7.5643e-16
4.2319e+02 7.5600e-16
4.2335e+02 7.5558e-16
4.2350e+02 7.5516e-16
4.2364e+02 7.5474e-16
4.2380e+02 7.5432e-16
4.2394e+02 7.5389e-16
4.2410e+02 7.5347e-16
4.2425e+02 7.5305e-16
4.2439e+02 7.5263e-16
4.2455e+02 7.5321e-16
4.2469e+02 7.5378e-16
4.2485e+02 7.5436e-16
4.2500e+02 7.5493e-16
4.2514e+02 7.5551e-16
4.2530e+02 7.5608e-16
4.2544e+02 7.5665e-16
4.2560e+02 7.5722e-16
4.2575e+02 7.5780e-16
4.2589e+02 7.5837e-16
4.2605e+02 7.5894e-16
4.2619e+02 7.5952e-16
4.2635e+02 7.6009e-16
4.2650e+02 7.6066e-16
4.2664e+02 7.6123e-16
4.2680e+02 7.6180e-16
4.2694e+02 7.6237e-16
4.2710e+02 7.6294e-16
4.2725e+02 7.6350e-16
4.2739e+02 7.6407e-16
4.2755e+02 7.6413e-16
4.2769e+02 7.6419e-16
4.2785e+02 7.6426e-16
4.2800e+02 7.6432e-16
4.2814e+02 7.6438e-16
4.2830e+02 7.6444e-16
4.2844e+02 7.6450e-16
4.2860e+02 7.6457e-16
4.2875e+02 7.6463e-16
4.2889e+02 7.6469e-16
4.2905e+02 7.6475e-16
4.2919e+02 7.6481e-16
4.2935e+02 7.6487e-16
4.2950e+02 7.6493e-16
4.2964e+02 7.6500e-16
4.2980e+02 7.6506e-16
4.2994e+02 7.6512e-16
4.3010e+02 7.6518e-16
4.3025e+02 7.6524e-16
4.3039e+02 7.6530e-16
4.3055e+02 7.6712e-16
4.3069e+02 7.6895e-16
4.3085e+02 7.7077e-16
4.3100e+02 7.7259e-16
4.3114e+02 7.7441e-16
4.3130e+02 7.7623e-16
4.3144e+02 7.7805e-16
4.3160e+02 7.7986e-16
4.3175e+02 7.8168e-16
4.3189e+02 7.8349e-16
4.3205e+02 7.8531e-16
4.3219e+02 7.8712e-16
4.3235e+02 7.8893e-16
4.3250e+02 7.9074e-16
4.3264e+02 7.8974e-16
4.3280e+02 7.8874e-16
4.3294e+02 7.8774e-16
4.3310e+02 7.8674e-16
4.3325e+02 7.8575e-16
4.3339e+02 7.8475e-16
4.3355e+02 7.8376e-16
4.3369e+02 7.8276e-16
4.3385e+02 7.8177e-16
4.3400e+02 7.8078e-16
4.3414e+02 7.7936e-16
4.3430e+02 7.7794e-16
4.3444e+02 7.7653e-16
