# lam(nm) Flux (erg/s/cm2/Ang)
3.8005e+02 1.5267e-11
3.8242e+02 1.5446e-11
3.8482e+02 1.5624e-11
3.8726e+02 1.5801e-11
3.8973e+02 1.5977e-11
3.9223e+02 1.6151e-11
3.9476e+02 1.6324e-11
3.9732e+02 1.6496e-11
3.9992e+02 1.6665e-11
4.0255e+02 1.6833e-11
4.0521e+02 1.6999e-11
4.0792e+02 1.7163e-11
4.1065e+02 1.7325e-11
4.1343e+02 1.7485e-11
4.1624e+02 1.7642e-11
4.1909e+02 1.7796e-11
4.2198e+02 1.7947e-11
4.2491e+02 1.8096e-11
4.2788e+02 1.8241e-11
4.3090e+02 1.8383e-11
4.3395e+02 1.8522e-11
4.3705e+02 1.8657e-11
4.4020e+02 1.8789e-11
4.4338e+02 1.8917e-11
4.4662e+02 1.9040e-11
4.4991e+02 1.9160e-11
4.5324e+02 1.9275e-11
4.5662e+02 1.9385e-11
4.6005e+02 1.9491e-11
4.6354e+02 1.9592e-11
4.6708e+02 1.9688e-11
4.7067e+02 1.9779e-11
4.7432e+02 1.9864e-11
4.7802e+02 1.9944e-11
4.8179e+02 2.0018e-11
4.8561e+02 2.0087e-11
4.8950e+02 2.0150e-11
4.9344e+02 2.0206e-11
4.9746e+02 2.0257e-11
5.0153e+02 2.0301e-11
5.0568e+02 2.0338e-11
5.0989e+02 2.0369e-11
5.1418e+02 2.0393e-11
5.1853e+02 2.0410e-11
5.2297e+02 2.0420e-11
5.2748e+02 2.0422e-11
5.3206e+02 2.0418e-11
5.3673e+02 2.0406e-11
5.4148e+02 2.0386e-11
5.4631e+02 2.0359e-11
5.5124e+02 2.0324e-11
5.5625e+02 2.0281e-11
5.6135e+02 2.0230e-11
5.6655e+02 2.0171e-11
5.7184e+02 2.0104e-11
5.7724e+02 2.0029e-11
5.8274e+02 1.9946e-11
5.8834e+02 1.9855e-11
5.9405e+02 1.9755e-11
5.9987e+02 1.9647e-11
6.0581e+02 1.9530e-11
6.1187e+02 1.9406e-11
6.1805e+02 1.9273e-11
6.2436e+02 1.9131e-11
6.3080e+02 1.8981e-11
6.3737e+02 1.8824e-11
6.4408e+02 1.8657e-11
6.5093e+02 1.8483e-11
6.5793e+02 1.8300e-11
6.6508e+02 1.8110e-11
6.7239e+02 1.7912e-11
6.7986e+02 1.7705e-11
6.8750e+02 1.7491e-11
6.9531e+02 1.7270e-11
7.0330e+02 1.7041e-11
7.1148e+02 1.6804e-11
7.1985e+02 1.6561e-11
7.2842e+02 1.6311e-11
7.3720e+02 1.6054e-11
7.4618e+02 1.5790e-11
7.5540e+02 1.5520e-11
7.6484e+02 1.5244e-11
7.7452e+02 1.4962e-11
7.8445e+02 1.4675e-11
