# lam(nm) Flux (erg/s/cm2/Ang)
3.8005e+02 4.2889e-16
3.8242e+02 4.4963e-16
3.8482e+02 4.7129e-16
3.8726e+02 4.9389e-16
3.8973e+02 5.1746e-16
3.9223e+02 5.4206e-16
3.9476e+02 5.6771e-16
3.9732e+02 5.9445e-16
3.9992e+02 6.2231e-16
4.0255e+02 6.5134e-16
4.0521e+02 6.8158e-16
4.0792e+02 7.1307e-16
4.1065e+02 7.4585e-16
4.1343e+02 7.7995e-16
4.1624e+02 8.1543e-16
4.1909e+02 8.5233e-16
4.2198e+02 8.9069e-16
4.2491e+02 9.3055e-16
4.2788e+02 9.7197e-16
4.3090e+02 1.0150e-15
4.3395e+02 1.0596e-15
4.3705e+02 1.1060e-15
4.4020e+02 1.1540e-15
4.4338e+02 1.2039e-15
4.4662e+02 1.2555e-15
4.4991e+02 1.3091e-15
4.5324e+02 1.3645e-15
4.5662e+02 1.4219e-15
4.6005e+02 1.4813e-15
4.6354e+02 1.5428e-15
4.6708e+02 1.6063e-15
4.7067e+02 1.6720e-15
4.7432e+02 1.7399e-15
4.7802e+02 1.8099e-15
4.8179e+02 1.8822e-15
4.8561e+02 1.9568e-15
4.8950e+02 2.0337e-15
4.9344e+02 2.1130e-15
4.9746e+02 2.1946e-15
5.0153e+02 2.2786e-15
5.0568e+02 2.3651e-15
5.0989e+02 2.4540e-15
5.1418e+02 2.5453e-15
5.1853e+02 2.6391e-15
5.2297e+02 2.7354e-15
5.2748e+02 2.8342e-15
5.3206e+02 2.9355e-15
5.3673e+02 3.0392e-15
5.4148e+02 3.1454e-15
5.4631e+02 3.2540e-15
5.5124e+02 3.3650e-15
5.5625e+02 3.4784e-15
5.6135e+02 3.5942e-15
5.6655e+02 3.7123e-15
5.7184e+02 3.8325e-15
5.7724e+02 3.9550e-15
5.8274e+02 4.0796e-15
5.8834e+02 4.2062e-15
5.9405e+02 4.3347e-15
5.9987e+02 4.4650e-15
6.0581e+02 4.5971e-15
6.1187e+02 4.7308e-15
6.1805e+02 4.8659e-15
6.2436e+02 5.0024e-15
6.3080e+02 5.1400e-15
6.3737e+02 5.2786e-15
6.4408e+02 5.4180e-15
6.5093e+02 5.5581e-15
6.5793e+02 5.6986e-15
6.6508e+02 5.8392e-15
6.7239e+02 5.9799e-15
6.7986e+02 6.1202e-15
6.8750e+02 6.2600e-15
6.9531e+02 6.3990e-15
7.0330e+02 6.5369e-15
7.1148e+02 6.6735e-15
7.1985e+02 6.8083e-15
7.2842e+02 6.9411e-15
7.3720e+02 7.0715e-15
7.4618e+02 7.1992e-15
7.5540e+02 7.3239e-15
7.6484e+02 7.4451e-15
7.7452e+02 7.5625e-15
7.8445e+02 7.6756e-15
